time,ecg
1710814950007,-41
1710814950014,-53
1710814950022,-53
1710814950030,-12
1710814950037,112
1710814950045,358
1710814950053,598
1710814950060,520
1710814950068,-34
1710814950076,-544
1710814950084,-444
1710814950091,-164
1710814950099,-169
1710814950107,-174
1710814950113,-95
1710814950121,-98
1710814950129,-112
1710814950137,-85
1710814950145,-83
1710814950153,-90
1710814950160,-85
1710814950168,-95
1710814950176,-95
1710814950183,-53
1710814950191,-39
1710814950199,-66
1710814950206,-61
1710814950214,-34
1710814950222,-22
1710814950229,-12
1710814950237,0
1710814950245,22
1710814950252,39
1710814950260,53
1710814950268,80
1710814950275,103
1710814950283,107
1710814950291,107
1710814950297,105
1710814950305,80
1710814950313,49
1710814950321,26
1710814950329,2
1710814950337,-36
1710814950344,-63
1710814950352,-76
1710814950360,-85
1710814950368,-105
1710814950375,-117
1710814950383,-120
1710814950391,-125
1710814950398,-137
1710814950406,-132
1710814950414,-120
1710814950421,-120
1710814950429,-110
1710814950437,-83
1710814950444,-58
1710814950452,-46
1710814950460,-29
1710814950467,-14
1710814950475,-7
1710814950483,0
1710814950489,17
1710814950497,44
1710814950505,51
1710814950513,24
1710814950521,14
1710814950529,19
1710814950536,4
1710814950544,7
1710814950552,29
1710814950559,36
1710814950567,24
1710814950575,12
1710814950582,4
1710814950590,17
1710814950598,29
1710814950605,17
1710814950613,4
1710814950621,14
1710814950628,26
1710814950636,24
1710814950644,26
1710814950651,39
1710814950659,56
1710814950667,63
1710814950675,36
1710814950681,7
1710814950689,9
1710814950697,0
1710814950705,-7
1710814950713,12
1710814950721,7
1710814950728,-12
1710814950736,14
1710814950744,88
1710814950751,260
1710814950759,542
1710814950767,709
1710814950774,453
1710814950782,-149
1710814950790,-446
1710814950797,-218
1710814950805,-53
1710814950813,-85
1710814950820,-22
1710814950828,46
1710814950836,14
1710814950843,-7
1710814950851,7
1710814950859,29
1710814950865,36
1710814950873,44
1710814950881,53
1710814950889,66
1710814950897,68
1710814950905,53
1710814950912,63
1710814950920,105
1710814950928,115
1710814950935,115
1710814950943,139
1710814950951,169
1710814950959,181
1710814950966,181
1710814950974,186
1710814950982,203
1710814950989,201
1710814950997,196
1710814951005,211
1710814951012,198
1710814951020,186
1710814951028,193
1710814951035,161
1710814951043,110
1710814951051,88
1710814951057,88
1710814951065,80
1710814951073,71
1710814951081,66
1710814951089,58
1710814951097,46
1710814951104,53
1710814951112,68
1710814951120,73
1710814951127,71
1710814951135,66
1710814951143,66
1710814951150,71
1710814951158,76
1710814951166,78
1710814951173,83
1710814951181,88
1710814951189,90
1710814951196,90
1710814951204,83
1710814951212,73
1710814951219,76
1710814951227,80
1710814951235,78
1710814951241,71
1710814951249,61
1710814951257,58
1710814951265,71
1710814951273,71
1710814951281,63
1710814951289,63
1710814951296,63
1710814951304,51
1710814951312,51
1710814951319,63
1710814951327,68
1710814951335,56
1710814951342,51
1710814951350,63
1710814951358,76
1710814951365,90
1710814951373,103
1710814951381,90
1710814951388,61
1710814951396,46
1710814951404,51
1710814951411,53
1710814951419,61
1710814951427,71
1710814951433,85
1710814951441,95
1710814951449,112
1710814951457,238
1710814951465,520
1710814951473,733
1710814951480,539
1710814951488,-49
1710814951496,-429
1710814951503,-238
1710814951511,-7
1710814951519,-36
1710814951526,-26
1710814951534,41
1710814951542,26
1710814951549,2
1710814951557,34
1710814951565,58
1710814951573,51
1710814951580,56
1710814951588,71
1710814951596,71
1710814951603,78
1710814951611,90
1710814951619,88
1710814951625,83
1710814951633,88
1710814951641,98
1710814951649,117
1710814951657,127
1710814951665,130
1710814951672,144
1710814951680,147
1710814951688,152
1710814951695,171
1710814951703,176
1710814951711,171
1710814951718,159
1710814951726,125
1710814951734,95
1710814951741,76
1710814951749,39
1710814951757,7
1710814951764,-4
1710814951772,-9
1710814951780,-17
1710814951787,-26
1710814951795,-36
1710814951803,-36
1710814951809,-29
1710814951817,-24
1710814951825,-19
1710814951833,-19
1710814951841,-14
1710814951849,-9
1710814951857,-14
1710814951864,-19
1710814951872,0
1710814951880,19
1710814951887,12
1710814951895,2
1710814951903,2
1710814951910,-2
1710814951918,-7
1710814951926,-2
1710814951933,4
1710814951941,4
1710814951949,0
1710814951956,4
1710814951964,12
1710814951972,4
1710814951979,-4
1710814951987,4
1710814951995,7
1710814952001,-9
1710814952009,-9
1710814952017,12
1710814952025,17
1710814952033,7
1710814952041,7
1710814952048,26
1710814952056,51
1710814952064,63
1710814952071,66
1710814952079,66
1710814952087,61
1710814952094,56
1710814952102,46
1710814952110,46
1710814952117,51
1710814952125,41
1710814952133,44
1710814952140,63
1710814952148,46
1710814952156,34
1710814952164,71
1710814952171,191
1710814952179,441
1710814952187,696
1710814952193,603
1710814952201,14
1710814952209,-488
1710814952217,-365
1710814952225,-95
1710814952233,-90
1710814952240,-76
1710814952248,4
1710814952256,2
1710814952263,-7
1710814952271,39
1710814952279,63
1710814952286,56
1710814952294,66
1710814952302,83
1710814952309,95
1710814952317,110
1710814952325,122
1710814952332,125
1710814952340,130
1710814952348,139
1710814952355,139
1710814952363,144
1710814952371,159
1710814952377,169
1710814952385,174
1710814952393,191
1710814952401,215
1710814952409,223
1710814952417,223
1710814952424,220
1710814952432,213
1710814952440,206
1710814952448,191
1710814952455,157
1710814952463,127
1710814952471,100
1710814952478,66
1710814952486,49
1710814952494,46
1710814952501,31
1710814952509,4
1710814952517,-2
1710814952524,2
1710814952532,-2
1710814952540,2
1710814952547,14
1710814952555,26
1710814952563,34
1710814952569,39
1710814952577,41
1710814952585,49
1710814952593,51
1710814952601,49
1710814952609,53
1710814952616,58
1710814952624,61
1710814952632,66
1710814952639,66
1710814952647,51
1710814952655,41
1710814952662,53
1710814952670,58
1710814952678,49
1710814952685,44
1710814952693,34
1710814952701,34
1710814952708,46
1710814952716,39
1710814952724,19
1710814952731,19
1710814952739,29
1710814952747,29
1710814952755,19
1710814952761,26
1710814952769,51
1710814952777,66
1710814952785,76
1710814952793,90
1710814952801,71
1710814952808,39
1710814952816,39
1710814952824,51
1710814952831,51
1710814952839,49
1710814952847,51
1710814952854,56
1710814952862,58
1710814952870,130
1710814952877,380
1710814952885,657
1710814952893,606
1710814952900,103
1710814952908,-392
1710814952916,-336
1710814952923,-58
1710814952931,-31
1710814952939,-26
1710814952945,56
1710814952953,61
1710814952961,46
1710814952969,78
1710814952977,93
1710814952985,90
1710814952992,105
1710814953000,112
1710814953008,115
1710814953015,130
1710814953023,139
1710814953031,139
1710814953039,157
1710814953046,181
1710814953054,181
1710814953062,181
1710814953069,196
1710814953077,198
1710814953085,191
1710814953092,203
1710814953100,218
1710814953108,218
1710814953115,206
1710814953123,203
1710814953131,206
1710814953137,184
1710814953145,144
1710814953153,115
1710814953161,83
1710814953169,44
1710814953177,17
1710814953184,4
1710814953192,-7
1710814953200,-17
1710814953207,-19
1710814953215,-24
1710814953223,-31
1710814953230,-34
1710814953238,-31
1710814953246,-31
1710814953253,-34
1710814953261,-31
1710814953269,-19
1710814953276,-17
1710814953284,-17
1710814953292,-9
1710814953299,2
1710814953307,9
1710814953315,2
1710814953321,0
1710814953329,12
1710814953337,4
1710814953345,-2
1710814953353,17
1710814953361,41
1710814953369,46
1710814953376,29
1710814953384,0
1710814953392,-4
1710814953399,12
1710814953407,24
1710814953415,26
1710814953422,41
1710814953430,56
1710814953438,58
1710814953445,71
1710814953453,93
1710814953461,93
1710814953468,76
1710814953476,71
1710814953484,90
1710814953491,73
1710814953499,31
1710814953507,56
1710814953513,103
1710814953521,98
1710814953529,100
1710814953537,157
1710814953545,291
1710814953553,544
1710814953560,765
1710814953568,613
1710814953576,31
1710814953583,-382
1710814953591,-223
1710814953599,0
1710814953606,-17
1710814953614,14
1710814953622,85
1710814953629,63
1710814953637,49
1710814953645,85
1710814953653,93
1710814953660,76
1710814953668,88
1710814953676,110
1710814953683,117
1710814953691,120
1710814953699,130
1710814953705,147
1710814953713,159
1710814953721,159
1710814953729,159
1710814953737,169
1710814953745,184
1710814953752,193
1710814953760,220
1710814953768,250
1710814953775,245
1710814953783,240
1710814953791,262
1710814953798,269
1710814953806,240
1710814953814,218
1710814953821,208
1710814953829,181
1710814953837,144
1710814953844,127
1710814953852,115
1710814953860,78
1710814953867,49
1710814953875,53
1710814953883,66
1710814953889,58
1710814953897,51
1710814953905,66
1710814953913,93
1710814953921,115
1710814953929,132
1710814953937,132
1710814953944,112
1710814953952,117
1710814953960,139
1710814953967,137
1710814953975,120
1710814953983,130
1710814953990,144
1710814953998,125
1710814954006,105
1710814954013,112
1710814954021,127
1710814954029,127
1710814954036,115
1710814954044,95
1710814954052,83
1710814954059,95
1710814954067,107
1710814954075,88
1710814954081,78
1710814954089,103
1710814954097,95
1710814954105,66
1710814954113,61
1710814954121,73
1710814954128,88
1710814954136,88
1710814954144,71
1710814954151,41
1710814954159,19
1710814954167,14
1710814954174,2
1710814954182,-12
1710814954190,2
1710814954197,22
1710814954205,19
1710814954213,2
1710814954220,4
1710814954228,26
1710814954236,51
1710814954244,154
1710814954251,409
1710814954259,672
1710814954267,625
1710814954273,115
1710814954281,-399
1710814954289,-348
1710814954297,-73
1710814954305,-49
1710814954313,-49
1710814954320,-17
1710814954328,-61
1710814954336,-53
1710814954343,4
1710814954351,14
1710814954359,14
1710814954366,36
1710814954374,53
1710814954382,41
1710814954389,26
1710814954397,31
1710814954405,58
1710814954412,85
1710814954420,88
1710814954428,95
1710814954435,120
1710814954443,127
1710814954451,127
1710814954457,157
1710814954465,186
1710814954473,184
1710814954481,184
1710814954489,201
1710814954497,196
1710814954504,181
1710814954512,186
1710814954520,174
1710814954528,127
1710814954535,90
1710814954543,83
1710814954551,49
1710814954558,-4
1710814954566,-17
1710814954574,-22
1710814954581,-51
1710814954589,-58
1710814954597,-34
1710814954604,-31
1710814954612,-41
1710814954620,-34
1710814954627,-39
1710814954635,-53
1710814954643,-41
1710814954649,-12
1710814954657,-2
1710814954665,-17
1710814954673,-17
1710814954681,9
1710814954689,31
1710814954696,31
1710814954704,24
1710814954712,19
1710814954719,19
1710814954727,24
1710814954735,26
1710814954742,26
1710814954750,36
1710814954758,51
1710814954765,61
1710814954773,63
1710814954781,71
1710814954788,68
1710814954796,56
1710814954804,53
1710814954811,66
1710814954819,71
1710814954827,76
1710814954835,95
1710814954841,103
1710814954849,85
1710814954857,56
1710814954865,49
1710814954873,56
1710814954881,51
1710814954888,46
1710814954896,56
1710814954904,61
1710814954911,61
1710814954919,76
1710814954927,144
1710814954934,348
1710814954942,657
1710814954950,782
1710814954957,414
1710814954965,-225
1710814954973,-407
1710814954980,-115
1710814954988,9
1710814954996,-26
1710814955003,41
1710814955011,83
1710814955019,58
1710814955025,76
1710814955033,105
1710814955041,98
1710814955049,100
1710814955057,122
1710814955065,132
1710814955072,130
1710814955080,130
1710814955088,137
1710814955095,144
1710814955103,159
1710814955111,179
1710814955119,188
1710814955126,196
1710814955134,211
1710814955142,223
1710814955149,230
1710814955157,240
1710814955165,250
1710814955172,255
1710814955180,252
1710814955188,242
1710814955195,228
1710814955203,215
1710814955211,196
1710814955217,164
1710814955225,137
1710814955233,122
1710814955241,93
1710814955249,58
1710814955257,49
1710814955264,44
1710814955272,34
1710814955280,31
1710814955287,34
1710814955295,39
1710814955303,31
1710814955310,34
1710814955318,51
1710814955326,56
1710814955333,53
1710814955341,53
1710814955349,61
1710814955356,68
1710814955364,66
1710814955372,63
1710814955379,85
1710814955387,93
1710814955395,71
1710814955401,61
1710814955409,88
1710814955417,100
1710814955425,76
1710814955433,66
1710814955441,93
1710814955449,95
1710814955456,71
1710814955464,83
1710814955472,100
1710814955479,88
1710814955487,85
1710814955495,103
1710814955502,110
1710814955510,115
1710814955518,127
1710814955525,103
1710814955533,53
1710814955541,44
1710814955548,61
1710814955556,61
1710814955564,51
1710814955571,39
1710814955579,29
1710814955587,39
1710814955593,100
1710814955601,274
1710814955609,554
1710814955617,706
1710814955625,436
1710814955633,-152
1710814955640,-417
1710814955648,-166
1710814955656,-4
1710814955663,-61
1710814955671,-22
1710814955679,39
1710814955686,17
1710814955694,19
1710814955702,46
1710814955709,49
1710814955717,49
1710814955725,51
1710814955733,56
1710814955740,58
1710814955748,46
1710814955756,49
1710814955763,73
1710814955771,83
1710814955779,73
1710814955785,83
1710814955793,110
1710814955801,122
1710814955809,125
1710814955817,142
1710814955825,157
1710814955832,159
1710814955840,164
1710814955848,181
1710814955855,184
1710814955863,164
1710814955871,142
1710814955878,122
1710814955886,83
1710814955894,53
1710814955901,41
1710814955909,17
1710814955917,-2
1710814955924,-4
1710814955932,-14
1710814955940,-24
1710814955947,-14
1710814955955,-7
1710814955963,-12
1710814955969,-14
1710814955977,-2
1710814955985,22
1710814955993,31
1710814956001,46
1710814956009,80
1710814956017,98
1710814956024,90
1710814956032,103
1710814956040,125
1710814956047,125
1710814956055,115
1710814956063,115
1710814956070,117
1710814956078,117
1710814956086,120
1710814956093,115
1710814956101,107
1710814956109,100
1710814956116,85
1710814956124,76
1710814956132,80
1710814956139,85
1710814956147,85
1710814956155,93
1710814956161,98
1710814956169,98
1710814956177,103
1710814956185,112
1710814956193,122
1710814956201,125
1710814956208,112
1710814956216,93
1710814956224,83
1710814956231,83
1710814956239,80
1710814956247,80
1710814956254,76
1710814956262,61
1710814956270,56
1710814956277,103
1710814956285,235
1710814956293,480
1710814956300,721
1710814956308,635
1710814956316,80
1710814956324,-404
1710814956331,-287
1710814956339,-19
1710814956347,-26
1710814956353,-12
1710814956361,78
1710814956369,68
1710814956377,49
1710814956385,73
1710814956393,85
1710814956400,100
1710814956408,110
1710814956416,98
1710814956423,95
1710814956431,122
1710814956439,132
1710814956446,122
1710814956454,122
1710814956462,139
1710814956469,161
1710814956477,174
1710814956485,174
1710814956492,176
1710814956500,193
1710814956508,203
1710814956515,203
1710814956523,215
1710814956531,233
1710814956537,245
1710814956545,220
1710814956553,186
1710814956561,179
1710814956569,149
1710814956577,85
1710814956584,61
1710814956592,58
1710814956600,29
1710814956608,17
1710814956615,26
1710814956623,12
1710814956631,-4
1710814956638,22
1710814956646,26
1710814956654,-31
1710814956661,-46
1710814956669,-2
1710814956677,-4
1710814956684,-24
1710814956692,9
1710814956700,24
1710814956707,12
1710814956715,31
1710814956723,51
1710814956729,41
1710814956737,44
1710814956745,58
1710814956753,46
1710814956761,36
1710814956769,44
1710814956776,46
1710814956784,49
1710814956792,63
1710814956799,56
1710814956807,41
1710814956815,56
1710814956822,58
1710814956830,39
1710814956838,46
1710814956845,71
1710814956853,73
1710814956861,73
1710814956868,85
1710814956876,78
1710814956884,66
1710814956891,78
1710814956899,90
1710814956907,71
1710814956915,44
1710814956921,44
1710814956929,61
1710814956937,66
1710814956945,73
1710814956953,78
1710814956961,80
1710814956968,98
1710814956976,171
1710814956984,375
1710814956991,672
1710814956999,787
1710814957007,424
1710814957014,-203
1710814957022,-387
1710814957030,-105
1710814957037,2
1710814957045,-44
1710814957053,24
1710814957060,63
1710814957068,31
1710814957076,41
1710814957083,76
1710814957091,80
1710814957099,80
1710814957105,93
1710814957113,105
1710814957121,107
1710814957129,110
1710814957137,115
1710814957145,112
1710814957152,117
1710814957160,134
1710814957168,147
1710814957175,159
1710814957183,169
1710814957191,157
1710814957199,157
1710814957206,181
1710814957214,206
1710814957222,211
1710814957229,213
1710814957237,215
1710814957245,188
1710814957252,152
1710814957260,130
1710814957268,98
1710814957275,63
1710814957283,34
1710814957291,-2
1710814957297,-19
1710814957305,0
1710814957313,22
1710814957321,22
1710814957329,17
1710814957337,24
1710814957344,39
1710814957352,51
1710814957360,56
1710814957367,53
1710814957375,56
1710814957383,58
1710814957390,66
1710814957398,76
1710814957406,78
1710814957413,80
1710814957421,93
1710814957429,98
1710814957436,95
1710814957444,98
1710814957452,95
1710814957459,88
1710814957467,90
1710814957475,95
1710814957481,98
1710814957489,105
1710814957497,105
1710814957505,98
1710814957513,90
1710814957521,93
1710814957529,105
1710814957536,112
1710814957544,103
1710814957552,93
1710814957559,98
1710814957567,115
1710814957575,132
1710814957582,139
1710814957590,137
1710814957598,117
1710814957605,93
1710814957613,88
1710814957621,95
1710814957628,105
1710814957636,107
1710814957644,105
1710814957651,100
1710814957659,110
1710814957667,171
1710814957673,345
1710814957681,613
1710814957689,763
1710814957697,488
1710814957705,-112
1710814957713,-370
1710814957720,-105
1710814957728,56
1710814957736,-17
1710814957743,12
1710814957751,76
1710814957759,44
1710814957766,19
1710814957774,46
1710814957782,66
1710814957789,71
1710814957797,80
1710814957805,85
1710814957813,93
1710814957820,107
1710814957828,132
1710814957836,152
1710814957843,169
1710814957851,176
1710814957859,171
1710814957865,184
1710814957873,208
1710814957881,223
1710814957889,238
1710814957897,255
1710814957905,267
1710814957912,269
1710814957920,252
1710814957928,233
1710814957935,235
1710814957943,230
1710814957951,184
1710814957958,139
1710814957966,115
1710814957974,85
1710814957981,66
1710814957989,76
1710814957997,71
1710814958004,29
1710814958012,19
1710814958020,34
1710814958027,29
1710814958035,44
1710814958043,68
1710814958049,68
1710814958057,68
1710814958065,76
1710814958073,80
1710814958081,83
1710814958089,80
1710814958097,73
1710814958104,80
1710814958112,90
1710814958120,88
1710814958127,93
1710814958135,103
1710814958143,95
1710814958150,85
1710814958158,95
1710814958166,103
1710814958173,90
1710814958181,78
1710814958189,78
1710814958196,83
1710814958204,88
1710814958212,88
1710814958219,85
1710814958227,85
1710814958235,88
1710814958241,100
1710814958249,117
1710814958257,115
1710814958265,83
1710814958273,46
1710814958281,39
1710814958288,51
1710814958296,53
1710814958304,53
1710814958311,53
1710814958319,53
1710814958327,61
1710814958334,110
1710814958342,262
1710814958350,525
1710814958357,726
1710814958365,581
1710814958373,36
1710814958380,-360
1710814958388,-198
1710814958396,14
1710814958404,-24
1710814958411,14
1710814958419,90
1710814958427,51
1710814958433,51
1710814958441,110
1710814958449,105
1710814958457,78
1710814958465,98
1710814958473,117
1710814958480,107
1710814958488,105
1710814958496,120
1710814958503,125
1710814958511,107
1710814958519,110
1710814958526,142
1710814958534,166
1710814958542,186
1710814958549,213
1710814958557,240
1710814958565,260
1710814958572,272
1710814958580,279
1710814958588,282
1710814958595,274
1710814958603,260
1710814958611,242
1710814958617,208
1710814958625,159
1710814958633,122
1710814958641,93
1710814958649,66
1710814958657,44
1710814958664,31
1710814958672,19
1710814958680,7
1710814958688,14
1710814958695,29
1710814958703,26
1710814958711,17
1710814958718,19
1710814958726,22
1710814958734,24
1710814958741,31
1710814958749,34
1710814958757,24
1710814958764,17
1710814958772,24
1710814958780,31
1710814958787,31
1710814958795,29
1710814958803,19
1710814958809,7
1710814958817,12
1710814958825,24
1710814958833,22
1710814958841,12
1710814958849,9
1710814958856,12
1710814958864,17
1710814958872,19
1710814958879,22
1710814958887,26
1710814958895,26
1710814958902,24
1710814958910,26
1710814958918,29
1710814958925,31
1710814958933,44
1710814958941,61
1710814958948,61
1710814958956,51
1710814958964,39
1710814958971,31
1710814958979,39
1710814958987,36
1710814958995,22
1710814959001,26
1710814959009,31
1710814959017,39
1710814959025,95
1710814959033,250
1710814959041,507
1710814959048,682
1710814959056,412
1710814959064,-213
1710814959071,-451
1710814959079,-166
1710814959087,-22
1710814959094,-66
1710814959102,0
1710814959110,53
1710814959117,34
1710814959125,31
1710814959133,31
1710814959140,39
1710814959148,61
1710814959156,66
1710814959163,66
1710814959171,80
1710814959179,90
1710814959185,93
1710814959193,98
1710814959201,105
1710814959209,112
1710814959217,122
1710814959225,132
1710814959232,149
1710814959240,161
1710814959248,169
1710814959255,191
1710814959263,211
1710814959271,215
1710814959279,220
1710814959286,225
1710814959294,220
1710814959302,198
1710814959309,171
1710814959317,142
1710814959325,110
1710814959332,83
1710814959340,63
1710814959348,34
1710814959355,2
1710814959363,2
1710814959371,0
1710814959377,-22
1710814959385,-34
1710814959393,-24
1710814959401,-12
1710814959409,-7
1710814959417,9
1710814959424,29
1710814959432,36
1710814959440,39
1710814959447,46
1710814959455,51
1710814959463,49
1710814959470,53
1710814959478,63
1710814959486,66
1710814959493,66
1710814959501,56
1710814959509,49
1710814959516,53
1710814959524,61
1710814959532,58
1710814959539,68
1710814959547,71
1710814959555,58
1710814959561,66
1710814959569,88
1710814959577,93
1710814959585,83
1710814959593,83
1710814959601,105
1710814959609,132
1710814959616,147
1710814959624,144
1710814959632,132
1710814959639,103
1710814959647,73
1710814959655,71
1710814959662,83
1710814959670,83
1710814959678,76
1710814959685,73
1710814959693,85
1710814959701,105
1710814959708,184
1710814959716,397
1710814959724,689
1710814959731,782
1710814959739,385
1710814959747,-257
1710814959753,-404
1710814959761,-90
1710814959769,19
1710814959777,-26
1710814959785,36
1710814959793,76
1710814959800,53
1710814959808,78
1710814959816,112
1710814959823,115
1710814959831,125
1710814959839,149
1710814959846,157
1710814959854,154
1710814959862,159
1710814959869,171
1710814959877,184
1710814959885,191
1710814959893,193
1710814959900,203
1710814959908,208
1710814959916,201
1710814959923,203
1710814959931,233
1710814959939,252
1710814959945,255
1710814959953,252
1710814959961,250
1710814959969,245
1710814959977,242
1710814959985,230
1710814959992,203
1710814960000,164
1710814960008,125
1710814960015,90
1710814960023,73
1710814960031,63
1710814960038,49
1710814960046,36
1710814960054,31
1710814960061,31
1710814960069,31
1710814960077,31
1710814960084,41
1710814960092,56
1710814960100,58
1710814960107,61
1710814960115,80
1710814960123,88
1710814960129,76
1710814960137,76
1710814960145,90
1710814960153,98
1710814960161,98
1710814960169,100
1710814960177,95
1710814960184,93
1710814960192,100
1710814960200,93
1710814960207,90
1710814960215,95
1710814960223,103
1710814960230,105
1710814960238,100
1710814960246,88
1710814960253,73
1710814960261,71
1710814960269,83
1710814960276,90
1710814960284,95
1710814960292,103
1710814960299,90
1710814960307,68
1710814960315,61
1710814960321,61
1710814960329,56
1710814960337,58
1710814960345,68
1710814960353,85
1710814960361,98
1710814960368,130
1710814960376,267
1710814960384,522
1710814960391,706
1710814960399,537
1710814960407,-14
1710814960414,-370
1710814960422,-152
1710814960430,71
1710814960437,-17
1710814960445,-12
1710814960453,95
1710814960460,83
1710814960468,66
1710814960476,110
1710814960484,122
1710814960491,100
1710814960499,107
1710814960507,120
1710814960513,112
1710814960521,115
1710814960529,134
1710814960537,149
1710814960545,144
1710814960553,147
1710814960560,174
1710814960568,196
1710814960576,201
1710814960583,208
1710814960591,206
1710814960599,203
1710814960606,223
1710814960614,238
1710814960622,223
1710814960629,208
1710814960637,203
1710814960645,191
1710814960652,169
1710814960660,144
1710814960668,107
1710814960675,66
1710814960683,39
1710814960691,22
1710814960697,7
1710814960705,-2
1710814960713,-2
1710814960721,-2
1710814960729,4
1710814960737,12
1710814960744,17
1710814960752,22
1710814960760,22
1710814960768,19
1710814960775,24
1710814960783,19
1710814960791,12
1710814960798,24
1710814960806,41
1710814960814,51
1710814960821,51
1710814960829,58
1710814960837,66
1710814960844,58
1710814960852,66
1710814960860,85
1710814960867,78
1710814960875,56
1710814960883,61
1710814960889,83
1710814960897,78
1710814960905,73
1710814960913,85
1710814960921,61
1710814960929,39
1710814960936,68
1710814960944,85
1710814960952,83
1710814960959,105
1710814960967,100
1710814960975,68
1710814960982,63
1710814960990,68
1710814960998,61
1710814961005,63
1710814961013,83
1710814961021,93
1710814961028,83
1710814961036,83
1710814961044,139
1710814961051,301
1710814961059,581
1710814961067,802
1710814961075,606
1710814961081,-14
1710814961089,-372
1710814961097,-132
1710814961105,76
1710814961113,9
1710814961121,41
1710814961128,115
1710814961136,98
1710814961144,110
1710814961151,142
1710814961159,132
1710814961167,130
1710814961174,144
1710814961182,142
1710814961190,134
1710814961197,134
1710814961205,134
1710814961213,139
1710814961220,154
1710814961228,166
1710814961236,174
1710814961243,179
1710814961251,196
1710814961259,223
1710814961265,235
1710814961273,242
1710814961281,264
1710814961289,264
1710814961297,240
1710814961305,238
1710814961312,240
1710814961320,223
1710814961328,198
1710814961335,171
1710814961343,137
1710814961351,105
1710814961359,85
1710814961366,73
1710814961374,56
1710814961382,44
1710814961389,44
1710814961397,41
1710814961405,46
1710814961412,61
1710814961420,58
1710814961428,46
1710814961435,51
1710814961443,66
1710814961451,71
1710814961457,85
1710814961465,117
1710814961473,122
1710814961481,103
1710814961489,107
1710814961497,125
1710814961504,134
1710814961512,134
1710814961520,127
1710814961527,115
1710814961535,115
1710814961543,127
1710814961550,130
1710814961558,125
1710814961566,132
1710814961573,137
1710814961581,125
1710814961589,120
1710814961596,132
1710814961604,134
1710814961612,137
1710814961619,157
1710814961627,171
1710814961635,159
1710814961643,149
1710814961649,137
1710814961657,115
1710814961665,107
1710814961673,130
1710814961681,144
1710814961689,110
1710814961696,76
1710814961704,80
1710814961712,115
1710814961719,235
1710814961727,512
1710814961735,780
1710814961742,672
1710814961750,71
1710814961758,-424
1710814961765,-279
1710814961773,-7
1710814961781,-19
1710814961788,4
1710814961796,100
1710814961804,88
1710814961811,63
1710814961819,93
1710814961827,107
1710814961833,105
1710814961841,112
1710814961849,117
1710814961857,117
1710814961865,117
1710814961873,112
1710814961880,117
1710814961888,127
1710814961896,139
1710814961903,152
1710814961911,161
1710814961919,176
1710814961926,191
1710814961934,196
1710814961942,218
1710814961950,245
1710814961957,245
1710814961965,242
1710814961973,255
1710814961980,250
1710814961988,228
1710814961996,211
1710814962003,179
1710814962011,130
1710814962019,103
1710814962025,78
1710814962033,44
1710814962041,24
1710814962049,22
1710814962057,24
1710814962065,19
1710814962072,22
1710814962080,26
1710814962088,31
1710814962095,46
1710814962103,58
1710814962111,51
1710814962118,49
1710814962126,61
1710814962134,71
1710814962141,73
1710814962149,78
1710814962157,80
1710814962164,76
1710814962172,73
1710814962180,78
1710814962187,66
1710814962195,49
1710814962203,44
1710814962209,49
1710814962217,51
1710814962225,49
1710814962233,51
1710814962241,58
1710814962249,61
1710814962256,49
1710814962264,46
1710814962272,63
1710814962280,73
1710814962287,78
1710814962295,76
1710814962303,51
1710814962310,19
1710814962318,29
1710814962326,58
1710814962333,66
1710814962341,73
1710814962349,85
1710814962356,76
1710814962364,71
1710814962372,105
1710814962379,213
1710814962387,446
1710814962395,694
1710814962401,640
1710814962409,122
1710814962417,-392
1710814962425,-323
1710814962433,-46
1710814962441,-44
1710814962448,-53
1710814962456,39
1710814962464,46
1710814962471,22
1710814962479,49
1710814962487,66
1710814962494,63
1710814962502,71
1710814962510,78
1710814962517,80
1710814962525,73
1710814962533,73
1710814962540,88
1710814962548,98
1710814962556,95
1710814962563,103
1710814962571,115
1710814962579,127
1710814962587,147
1710814962593,164
1710814962601,179
1710814962609,191
1710814962617,198
1710814962625,191
1710814962633,186
1710814962640,181
1710814962648,166
1710814962656,144
1710814962663,115
1710814962671,78
1710814962679,39
1710814962686,17
1710814962694,7
1710814962702,-7
1710814962709,-19
1710814962717,-26
1710814962725,-31
1710814962732,-31
1710814962740,-29
1710814962748,-29
1710814962755,-29
1710814962763,-26
1710814962771,-26
1710814962777,-19
1710814962785,-12
1710814962793,-9
1710814962801,0
1710814962809,9
1710814962817,9
1710814962824,17
1710814962832,19
1710814962840,12
1710814962847,17
1710814962855,26
1710814962863,31
1710814962871,36
1710814962878,41
1710814962886,36
1710814962894,31
1710814962901,39
1710814962909,51
1710814962917,51
1710814962924,61
1710814962932,88
1710814962940,107
1710814962947,93
1710814962955,51
1710814962963,34
1710814962969,61
1710814962977,71
1710814962985,58
1710814962993,58
1710814963001,61
1710814963009,71
1710814963016,112
1710814963024,213
1710814963032,419
1710814963039,672
1710814963047,701
1710814963055,287
1710814963062,-235
1710814963070,-262
1710814963078,7
1710814963085,36
1710814963093,7
1710814963101,88
1710814963108,98
1710814963116,71
1710814963124,95
1710814963131,110
1710814963139,105
1710814963147,120
1710814963153,137
1710814963161,132
1710814963169,120
1710814963177,125
1710814963185,139
1710814963193,154
1710814963201,176
1710814963208,193
1710814963216,193
1710814963224,201
1710814963231,225
1710814963239,240
1710814963247,250
1710814963254,267
1710814963262,272
1710814963270,260
1710814963277,257
1710814963285,252
1710814963293,238
1710814963300,215
1710814963308,186
1710814963316,149
1710814963323,120
1710814963331,100
1710814963339,78
1710814963345,68
1710814963353,71
1710814963361,53
1710814963369,22
1710814963377,12
1710814963385,24
1710814963392,44
1710814963400,49
1710814963408,26
1710814963415,14
1710814963423,44
1710814963431,73
1710814963438,68
1710814963446,61
1710814963454,61
1710814963461,61
1710814963469,76
1710814963477,93
1710814963485,88
1710814963492,93
1710814963500,100
1710814963508,100
1710814963515,110
1710814963523,117
1710814963531,110
1710814963537,105
1710814963545,110
1710814963553,122
1710814963561,147
1710814963569,161
1710814963577,157
1710814963584,176
1710814963592,220
1710814963600,250
1710814963607,247
1710814963615,220
1710814963623,203
1710814963630,206
1710814963638,203
1710814963646,201
1710814963653,201
1710814963661,206
1710814963669,211
1710814963676,208
1710814963684,240
1710814963692,390
1710814963699,657
1710814963707,856
1710814963715,679
1710814963721,88
1710814963729,-301
1710814963737,-105
1710814963745,107
1710814963753,71
1710814963761,107
1710814963769,188
1710814963776,166
1710814963784,149
1710814963792,176
1710814963799,179
1710814963807,169
1710814963815,169
1710814963822,166
1710814963830,171
1710814963838,181
1710814963845,181
1710814963853,186
1710814963861,206
1710814963868,218
1710814963876,213
1710814963884,223
1710814963891,240
1710814963899,245
1710814963907,247
1710814963913,257
1710814963921,267
1710814963929,269
1710814963937,267
1710814963945,255
1710814963953,242
1710814963960,228
1710814963968,193
1710814963976,149
1710814963983,120
1710814963991,93
1710814963999,58
1710814964006,31
1710814964014,26
1710814964022,29
1710814964029,24
1710814964037,17
1710814964045,24
1710814964052,36
1710814964060,39
1710814964068,39
1710814964076,39
1710814964083,46
1710814964091,66
1710814964099,78
1710814964105,80
1710814964113,83
1710814964121,80
1710814964129,80
1710814964137,78
1710814964145,76
1710814964152,76
1710814964160,73
1710814964168,73
1710814964175,73
1710814964183,63
1710814964191,58
1710814964198,73
1710814964206,98
1710814964214,110
1710814964221,103
1710814964229,80
1710814964237,68
1710814964244,66
1710814964252,68
1710814964260,83
1710814964267,110
1710814964275,132
1710814964283,139
1710814964289,132
1710814964297,103
1710814964305,83
1710814964313,105
1710814964321,125
1710814964329,130
1710814964336,127
1710814964344,100
1710814964352,85
1710814964360,134
1710814964367,252
1710814964375,473
1710814964383,711
1710814964390,660
1710814964398,142
1710814964406,-380
1710814964413,-318
1710814964421,-51
1710814964429,-51
1710814964436,-49
1710814964444,46
1710814964452,39
1710814964459,12
1710814964467,49
1710814964475,51
1710814964481,12
1710814964489,9
1710814964497,46
1710814964505,56
1710814964513,41
1710814964521,58
1710814964528,85
1710814964536,78
1710814964544,76
1710814964551,93
1710814964559,98
1710814964567,105
1710814964574,132
1710814964582,159
1710814964590,171
1710814964597,169
1710814964605,164
1710814964613,184
1710814964620,206
1710814964628,191
1710814964636,139
1710814964643,95
1710814964651,66
1710814964659,41
1710814964665,34
1710814964673,19
1710814964681,-24
1710814964689,-36
1710814964697,-19
1710814964705,-34
1710814964713,-68
1710814964720,-63
1710814964728,-31
1710814964736,-29
1710814964743,-31
1710814964751,-9
1710814964759,7
1710814964766,17
1710814964774,34
1710814964782,44
1710814964789,39
1710814964797,44
1710814964805,61
1710814964812,66
1710814964820,73
1710814964828,88
1710814964835,73
1710814964843,66
1710814964851,95
1710814964857,105
1710814964865,95
1710814964873,95
1710814964881,90
1710814964889,78
1710814964897,73
1710814964904,66
1710814964912,68
1710814964920,83
1710814964927,93
1710814964935,98
1710814964943,105
1710814964951,85
1710814964958,61
1710814964966,61
1710814964974,76
1710814964981,78
1710814964989,73
1710814964997,85
1710814965004,95
1710814965012,85
1710814965020,100
1710814965027,218
1710814965035,468
1710814965043,709
1710814965049,635
1710814965057,112
1710814965065,-345
1710814965073,-223
1710814965081,29
1710814965089,12
1710814965096,22
1710814965104,110
1710814965112,98
1710814965119,80
1710814965127,110
1710814965135,110
1710814965142,105
1710814965150,130
1710814965158,144
1710814965165,139
1710814965173,134
1710814965181,139
1710814965188,152
1710814965196,161
1710814965204,159
1710814965212,159
1710814965219,174
1710814965227,191
1710814965235,193
1710814965241,203
1710814965249,213
1710814965257,206
1710814965265,203
1710814965273,218
1710814965281,223
1710814965288,215
1710814965296,201
1710814965304,179
1710814965311,142
1710814965319,93
1710814965327,58
1710814965334,34
1710814965342,19
1710814965350,24
1710814965357,12
1710814965365,-17
1710814965373,-26
1710814965380,-12
1710814965388,-2
1710814965396,0
1710814965403,7
1710814965411,4
1710814965419,9
1710814965425,29
1710814965433,44
1710814965441,44
1710814965449,49
1710814965457,61
1710814965465,61
1710814965472,44
1710814965480,41
1710814965488,61
1710814965495,71
1710814965503,73
1710814965511,83
1710814965519,95
1710814965526,100
1710814965534,100
1710814965542,98
1710814965549,95
1710814965557,103
1710814965565,103
1710814965572,100
1710814965580,107
1710814965588,112
1710814965595,117
1710814965603,122
1710814965611,115
1710814965617,115
1710814965625,132
1710814965633,147
1710814965641,142
1710814965649,98
1710814965657,66
1710814965664,80
1710814965672,100
1710814965680,100
1710814965687,103
1710814965695,93
1710814965703,85
1710814965710,93
1710814965718,127
1710814965726,262
1710814965733,542
1710814965741,772
1710814965749,601
1710814965756,0
1710814965764,-385
1710814965772,-184
1710814965779,24
1710814965787,0
1710814965795,44
1710814965801,105
1710814965809,80
1710814965817,85
1710814965825,115
1710814965833,115
1710814965841,110
1710814965849,107
1710814965856,107
1710814965864,115
1710814965872,132
1710814965879,149
1710814965887,127
1710814965895,122
1710814965902,152
1710814965910,166
1710814965918,171
1710814965925,176
1710814965933,188
1710814965941,223
1710814965948,242
1710814965956,230
1710814965964,223
1710814965971,245
1710814965979,245
1710814965987,220
1710814965993,206
1710814966001,191
1710814966009,154
1710814966017,125
1710814966025,110
1710814966033,73
1710814966040,22
1710814966048,4
1710814966056,19
1710814966063,17
1710814966071,7
1710814966079,29
1710814966086,39
1710814966094,24
1710814966102,44
1710814966109,80
1710814966117,80
1710814966125,66
1710814966132,71
1710814966140,80
1710814966148,83
1710814966156,85
1710814966163,88
1710814966171,95
1710814966179,103
1710814966185,95
1710814966193,85
1710814966201,83
1710814966209,88
1710814966217,85
1710814966225,80
1710814966232,80
1710814966240,85
1710814966248,76
1710814966255,63
1710814966263,71
1710814966271,80
1710814966278,76
1710814966286,73
1710814966294,73
1710814966301,76
1710814966309,93
1710814966317,100
1710814966324,80
1710814966332,51
1710814966340,34
1710814966347,31
1710814966355,26
1710814966363,19
1710814966369,22
1710814966377,26
1710814966385,9
1710814966393,14
1710814966401,80
1710814966409,264
1710814966416,542
1710814966424,664
1710814966432,331
1710814966440,-274
1710814966447,-458
1710814966455,-181
1710814966463,-61
1710814966470,-93
1710814966478,-14
1710814966486,31
1710814966493,4
1710814966501,14
1710814966509,34
1710814966516,19
1710814966524,14
1710814966532,24
1710814966539,29
1710814966547,22
1710814966555,19
1710814966561,29
1710814966569,41
1710814966577,41
1710814966585,41
1710814966593,58
1710814966601,85
1710814966608,110
1710814966616,117
1710814966624,125
1710814966631,144
1710814966639,149
1710814966647,154
1710814966654,169
1710814966662,164
1710814966670,134
1710814966677,100
1710814966685,61
1710814966693,26
1710814966700,12
1710814966708,0
1710814966716,-9
1710814966723,-14
1710814966731,-36
1710814966739,-61
1710814966747,-85
1710814966753,-85
1710814966761,-63
1710814966769,-51
1710814966777,-49
1710814966785,-34
1710814966793,-24
1710814966800,-26
1710814966808,-22
1710814966816,-12
1710814966823,-9
1710814966831,2
1710814966839,17
1710814966846,14
1710814966854,17
1710814966862,9
1710814966869,-7
1710814966877,-4
1710814966885,-2
1710814966892,-12
1710814966900,-7
1710814966908,-4
1710814966915,-12
1710814966923,-12
1710814966931,-4
1710814966937,-2
1710814966945,0
1710814966953,-2
1710814966961,-7
1710814966969,-2
1710814966977,24
1710814966984,46
1710814966992,41
1710814967000,19
1710814967007,0
1710814967015,-7
1710814967023,2
1710814967031,12
1710814967038,14
1710814967046,14
1710814967054,2
1710814967061,-9
1710814967069,24
1710814967077,169
1710814967084,426
1710814967092,625
1710814967100,488
1710814967107,-36
1710814967115,-439
1710814967123,-301
1710814967129,-73
1710814967137,-78
1710814967145,-53
1710814967153,12
1710814967161,0
1710814967169,9
1710814967176,49
1710814967184,34
1710814967192,22
1710814967199,58
1710814967207,44
1710814967215,24
1710814967222,78
1710814967230,103
1710814967238,80
1710814967245,68
1710814967253,88
1710814967261,112
1710814967268,110
1710814967276,120
1710814967284,154
1710814967291,181
1710814967299,198
1710814967307,186
1710814967313,176
1710814967321,206
1710814967329,225
1710814967337,211
1710814967345,196
1710814967353,184
1710814967361,152
1710814967368,100
1710814967376,73
1710814967384,85
1710814967391,85
1710814967399,73
1710814967407,76
1710814967414,68
1710814967422,49
1710814967430,49
1710814967437,61
1710814967445,76
1710814967453,80
1710814967460,78
1710814967468,80
1710814967476,76
1710814967483,73
1710814967491,85
1710814967499,103
1710814967505,110
1710814967513,103
1710814967521,95
1710814967529,107
1710814967537,117
1710814967545,100
1710814967552,93
1710814967560,105
1710814967568,100
1710814967575,93
1710814967583,120
1710814967591,134
1710814967598,117
1710814967606,117
1710814967614,147
1710814967621,164
1710814967629,157
1710814967637,149
1710814967645,157
1710814967652,181
1710814967660,198
1710814967668,201
1710814967675,196
1710814967683,174
1710814967691,149
1710814967697,147
1710814967705,157
1710814967713,164
1710814967721,166
1710814967729,166
1710814967737,171
1710814967744,201
1710814967752,282
1710814967760,476
1710814967767,740
1710814967775,809
1710814967783,407
1710814967790,-184
1710814967798,-279
1710814967806,24
1710814967813,130
1710814967821,95
1710814967829,147
1710814967836,159
1710814967844,125
1710814967852,149
1710814967859,188
1710814967867,184
1710814967875,171
1710814967881,169
1710814967889,164
1710814967897,171
1710814967905,179
1710814967913,176
1710814967921,191
1710814967929,201
1710814967936,196
1710814967944,218
1710814967952,242
1710814967959,245
1710814967967,247
1710814967975,269
1710814967982,304
1710814967990,294
1710814967998,252
1710814968005,257
1710814968013,274
1710814968021,245
1710814968028,215
1710814968036,196
1710814968044,166
1710814968051,122
1710814968059,66
1710814968067,22
1710814968073,-7
1710814968081,-14
1710814968089,-4
1710814968097,-4
1710814968105,-2
1710814968113,0
1710814968120,2
1710814968128,14
1710814968136,26
1710814968143,24
1710814968151,22
1710814968159,31
1710814968166,44
1710814968174,44
1710814968182,41
1710814968189,41
1710814968197,41
1710814968205,44
1710814968212,51
1710814968220,63
1710814968228,71
1710814968236,76
1710814968243,78
1710814968251,80
1710814968259,76
1710814968265,78
1710814968273,90
1710814968281,100
1710814968289,98
1710814968297,95
1710814968305,90
1710814968312,95
1710814968320,95
1710814968328,93
1710814968335,105
1710814968343,120
1710814968351,120
1710814968358,100
1710814968366,68
1710814968374,63
1710814968381,73
1710814968389,63
1710814968397,56
1710814968404,61
1710814968412,61
1710814968420,76
1710814968427,142
1710814968435,301
1710814968443,569
1710814968449,745
1710814968457,502
1710814968465,-100
1710814968473,-407
1710814968481,-174
1710814968489,0
1710814968496,-39
1710814968504,24
1710814968512,95
1710814968520,61
1710814968527,46
1710814968535,73
1710814968543,73
1710814968550,73
1710814968558,85
1710814968566,100
1710814968573,107
1710814968581,85
1710814968589,66
1710814968596,100
1710814968604,127
1710814968612,134
1710814968619,161
1710814968627,188
1710814968635,206
1710814968641,235
1710814968649,264
1710814968657,287
1710814968665,304
1710814968673,304
1710814968681,289
1710814968688,284
1710814968696,282
1710814968704,264
1710814968711,225
1710814968719,186
1710814968727,164
1710814968734,144
1710814968742,125
1710814968750,115
1710814968757,110
1710814968765,100
1710814968773,90
1710814968780,90
1710814968788,88
1710814968796,85
1710814968803,95
1710814968811,103
1710814968819,100
1710814968827,88
1710814968833,93
1710814968841,115
1710814968849,112
1710814968857,103
1710814968865,100
1710814968873,105
1710814968880,110
1710814968888,110
1710814968896,103
1710814968903,103
1710814968911,112
1710814968919,115
1710814968926,105
1710814968934,105
1710814968942,110
1710814968949,103
1710814968957,95
1710814968965,100
1710814968972,105
1710814968980,100
1710814968988,103
1710814968995,125
1710814969003,142
1710814969011,127
1710814969017,85
1710814969025,56
1710814969033,53
1710814969041,51
1710814969049,53
1710814969057,66
1710814969064,51
1710814969072,34
1710814969080,56
1710814969087,142
1710814969095,338
1710814969103,586
1710814969111,608
1710814969118,198
1710814969126,-316
1710814969134,-341
1710814969141,-41
1710814969149,12
1710814969157,-29
1710814969164,58
1710814969172,93
1710814969180,53
1710814969187,66
1710814969195,93
1710814969203,110
1710814969209,127
1710814969217,132
1710814969225,134
1710814969233,139
1710814969241,137
1710814969249,127
1710814969256,134
1710814969264,154
1710814969272,174
1710814969279,181
1710814969287,188
1710814969295,203
1710814969302,218
1710814969310,230
1710814969318,238
1710814969325,242
1710814969333,255
1710814969341,252
1710814969348,238
1710814969356,233
1710814969364,223
1710814969371,198
1710814969379,176
1710814969387,159
1710814969393,130
1710814969401,88
1710814969409,68
1710814969417,73
1710814969425,68
1710814969433,58
1710814969441,58
1710814969448,61
1710814969456,66
1710814969464,78
1710814969471,85
1710814969479,88
1710814969487,88
1710814969494,88
1710814969502,90
1710814969510,98
1710814969517,103
1710814969525,103
1710814969533,105
1710814969540,103
1710814969548,90
1710814969556,85
1710814969563,90
1710814969571,83
1710814969579,66
1710814969585,44
1710814969593,24
1710814969601,14
1710814969609,19
1710814969617,29
1710814969625,26
1710814969632,26
1710814969640,39
1710814969648,44
1710814969655,53
1710814969663,80
1710814969671,80
1710814969678,41
1710814969686,24
1710814969694,31
1710814969701,29
1710814969709,39
1710814969717,61
1710814969725,78
1710814969732,78
1710814969740,56
1710814969748,117
1710814969755,348
1710814969763,630
1710814969771,711
1710814969777,368
1710814969785,-186
1710814969793,-328
1710814969801,-53
1710814969809,61
1710814969817,9
1710814969824,53
1710814969832,95
1710814969840,85
1710814969847,112
1710814969855,147
1710814969863,157
1710814969870,164
1710814969878,174
1710814969886,188
1710814969893,201
1710814969901,203
1710814969909,201
1710814969916,208
1710814969924,220
1710814969932,225
1710814969939,225
1710814969947,233
1710814969955,245
1710814969961,255
1710814969969,269
1710814969977,289
1710814969985,299
1710814969993,289
1710814970001,282
1710814970009,279
1710814970016,274
1710814970024,257
1710814970032,230
1710814970039,198
1710814970047,159
1710814970055,132
1710814970062,120
1710814970070,100
1710814970078,90
1710814970085,93
1710814970093,78
1710814970101,63
1710814970108,76
1710814970116,85
1710814970124,78
1710814970131,78
1710814970139,88
1710814970147,95
1710814970153,93
1710814970161,93
1710814970169,100
1710814970177,103
1710814970185,100
1710814970193,103
1710814970200,105
1710814970208,107
1710814970216,115
1710814970223,117
1710814970231,125
1710814970239,149
1710814970246,149
1710814970254,147
1710814970262,171
1710814970269,174
1710814970277,157
1710814970285,166
1710814970292,171
1710814970300,157
1710814970308,149
1710814970316,152
1710814970323,161
1710814970331,193
1710814970339,211
1710814970345,208
1710814970353,203
1710814970361,181
1710814970369,157
1710814970377,166
1710814970385,179
1710814970392,171
1710814970400,166
1710814970408,159
1710814970415,157
1710814970423,208
1710814970431,368
1710814970438,635
1710814970446,824
1710814970454,601
1710814970461,9
1710814970469,-333
1710814970477,-149
1710814970484,39
1710814970492,24
1710814970500,71
1710814970507,132
1710814970515,112
1710814970523,125
1710814970529,142
1710814970537,112
1710814970545,117
1710814970553,152
1710814970561,154
1710814970569,149
1710814970576,159
1710814970584,169
1710814970592,171
1710814970600,169
1710814970607,174
1710814970615,186
1710814970623,193
1710814970630,203
1710814970638,220
1710814970646,238
1710814970653,235
1710814970661,228
1710814970669,225
1710814970676,223
1710814970684,225
1710814970692,223
1710814970699,206
1710814970707,184
1710814970715,157
1710814970721,120
1710814970729,83
1710814970737,61
1710814970745,46
1710814970753,44
1710814970761,41
1710814970768,36
1710814970776,29
1710814970784,19
1710814970791,14
1710814970799,19
1710814970807,29
1710814970814,36
1710814970822,46
1710814970830,41
1710814970837,34
1710814970845,41
1710814970853,56
1710814970860,63
1710814970868,66
1710814970876,71
1710814970883,68
1710814970891,58
1710814970899,56
1710814970907,58
1710814970913,51
1710814970921,39
1710814970929,39
1710814970937,46
1710814970945,51
1710814970953,51
1710814970960,44
1710814970968,39
1710814970976,46
1710814970983,44
1710814970991,49
1710814970999,71
1710814971006,90
1710814971014,95
1710814971022,80
1710814971029,49
1710814971037,31
1710814971045,34
1710814971052,34
1710814971060,31
1710814971068,36
1710814971075,29
1710814971083,9
1710814971091,24
1710814971097,98
1710814971105,264
1710814971113,532
1710814971121,704
1710814971129,456
1710814971137,-132
1710814971144,-412
1710814971152,-188
1710814971160,-22
1710814971167,-41
1710814971175,19
1710814971183,85
1710814971191,53
1710814971198,39
1710814971206,56
1710814971214,58
1710814971221,71
1710814971229,93
1710814971237,90
1710814971244,80
1710814971252,85
1710814971260,95
1710814971267,105
1710814971275,120
1710814971283,134
1710814971289,134
1710814971297,132
1710814971305,149
1710814971313,179
1710814971321,186
1710814971329,188
1710814971336,201
1710814971344,206
1710814971352,206
1710814971359,201
1710814971367,181
1710814971375,159
1710814971382,139
1710814971390,112
1710814971398,80
1710814971405,53
1710814971413,31
1710814971421,14
1710814971428,0
1710814971436,-2
1710814971444,0
1710814971451,-17
1710814971459,-22
1710814971467,-12
1710814971473,-12
1710814971481,-9
1710814971489,12
1710814971497,19
1710814971505,4
1710814971513,2
1710814971521,9
1710814971528,9
1710814971536,14
1710814971544,24
1710814971551,26
1710814971559,29
1710814971567,24
1710814971574,12
1710814971582,12
1710814971590,19
1710814971597,22
1710814971605,24
1710814971613,26
1710814971620,22
1710814971628,26
1710814971636,41
1710814971643,46
1710814971651,41
1710814971659,44
1710814971665,63
1710814971673,78
1710814971681,71
1710814971689,46
1710814971697,24
1710814971705,29
1710814971712,51
1710814971720,63
1710814971728,53
1710814971735,31
1710814971743,49
1710814971751,107
1710814971758,213
1710814971766,441
1710814971774,662
1710814971781,542
1710814971789,-12
1710814971797,-429
1710814971805,-242
1710814971812,19
1710814971820,-17
1710814971828,-12
1710814971835,80
1710814971843,66
1710814971851,46
1710814971857,88
1710814971865,105
1710814971873,100
1710814971881,110
1710814971889,122
1710814971897,130
1710814971904,127
1710814971912,130
1710814971920,144
1710814971927,142
1710814971935,132
1710814971943,137
1710814971950,142
1710814971958,152
1710814971966,171
1710814971973,193
1710814971981,191
1710814971989,179
1710814971996,191
1710814972004,196
1710814972012,181
1710814972019,174
1710814972027,152
1710814972035,110
1710814972041,83
1710814972049,71
1710814972057,61
1710814972065,44
1710814972073,4
1710814972081,-24
1710814972089,-19
1710814972096,-2
1710814972104,-4
1710814972112,-14
1710814972119,-17
1710814972127,-9
1710814972135,-4
1710814972142,-2
1710814972150,7
1710814972158,26
1710814972165,31
1710814972173,31
1710814972181,39
1710814972188,58
1710814972196,68
1710814972204,58
1710814972211,61
1710814972219,85
1710814972227,80
1710814972233,63
1710814972241,78
1710814972249,95
1710814972257,85
1710814972265,76
1710814972273,80
1710814972280,78
1710814972288,71
1710814972296,80
1710814972303,93
1710814972311,90
1710814972319,107
1710814972326,132
1710814972334,110
1710814972342,76
1710814972349,83
1710814972357,105
1710814972365,103
1710814972372,85
1710814972380,93
1710814972388,130
1710814972396,159
1710814972403,211
1710814972411,365
1710814972419,610
1710814972425,753
1710814972433,517
1710814972441,-46
1710814972449,-301
1710814972457,-41
1710814972465,112
1710814972472,46
1710814972480,95
1710814972488,154
1710814972495,117
1710814972503,120
1710814972511,159
1710814972518,154
1710814972526,147
1710814972534,166
1710814972541,179
1710814972549,184
1710814972557,198
1710814972564,206
1710814972572,201
1710814972580,206
1710814972587,230
1710814972595,255
1710814972603,264
1710814972609,262
1710814972617,250
1710814972625,242
1710814972633,245
1710814972641,242
1710814972649,247
1710814972656,260
1710814972664,250
1710814972672,225
1710814972680,208
1710814972687,184
1710814972695,149
1710814972703,127
1710814972710,115
1710814972718,90
1710814972726,66
1710814972733,61
1710814972741,58
1710814972749,46
1710814972756,41
1710814972764,49
1710814972772,51
1710814972779,53
1710814972787,51
1710814972795,46
1710814972801,56
1710814972809,73
1710814972817,56
1710814972825,26
1710814972833,46
1710814972841,78
1710814972848,78
1710814972856,68
1710814972864,78
1710814972871,93
1710814972879,98
1710814972887,103
1710814972894,115
1710814972902,122
1710814972910,115
1710814972917,112
1710814972925,132
1710814972933,137
1710814972940,112
1710814972948,105
1710814972956,120
1710814972963,120
1710814972971,120
1710814972979,134
1710814972987,142
1710814972993,132
1710814973001,127
1710814973009,144
1710814973017,157
1710814973025,166
1710814973033,169
1710814973040,144
1710814973048,132
1710814973056,154
1710814973063,157
1710814973071,149
1710814973079,154
1710814973086,149
1710814973094,161
1710814973102,245
1710814973109,422
1710814973117,684
1710814973125,841
1710814973132,559
1710814973140,-53
1710814973148,-311
1710814973155,-61
1710814973163,90
1710814973171,46
1710814973177,95
1710814973185,144
1710814973193,105
1710814973201,110
1710814973209,149
1710814973217,147
1710814973224,144
1710814973232,159
1710814973240,169
1710814973247,176
1710814973255,159
1710814973263,137
1710814973271,152
1710814973278,169
1710814973286,176
1710814973294,184
1710814973301,201
1710814973309,220
1710814973317,225
1710814973324,240
1710814973332,269
1710814973340,287
1710814973347,284
1710814973355,272
1710814973363,260
1710814973369,257
1710814973377,228
1710814973385,186
1710814973393,159
1710814973401,127
1710814973409,85
1710814973416,61
1710814973424,44
1710814973432,29
1710814973439,12
1710814973447,-9
1710814973455,-2
1710814973462,26
1710814973470,14
1710814973478,-19
1710814973485,-17
1710814973493,0
1710814973501,-4
1710814973508,-4
1710814973516,17
1710814973524,31
1710814973531,29
1710814973539,29
1710814973547,29
1710814973553,34
1710814973561,41
1710814973569,39
1710814973577,41
1710814973585,56
1710814973593,71
1710814973601,68
1710814973608,68
1710814973616,90
1710814973624,105
1710814973631,90
1710814973639,73
1710814973647,83
1710814973654,103
1710814973662,110
1710814973670,115
1710814973677,120
1710814973685,120
1710814973693,122
1710814973700,142
1710814973708,157
1710814973716,147
1710814973723,117
1710814973731,90
1710814973739,78
1710814973745,78
1710814973753,78
1710814973761,80
1710814973769,78
1710814973777,73
1710814973785,73
1710814973792,120
1710814973800,272
1710814973808,539
1710814973815,748
1710814973823,574
1710814973831,-19
1710814973838,-407
1710814973846,-223
1710814973854,-4
1710814973861,-22
1710814973869,9
1710814973877,76
1710814973885,58
1710814973892,46
1710814973900,63
1710814973908,63
1710814973915,63
1710814973923,71
1710814973931,66
1710814973937,63
1710814973945,66
1710814973953,71
1710814973961,78
1710814973969,85
1710814973977,93
1710814973984,103
1710814973992,112
1710814974000,115
1710814974007,115
1710814974015,125
1710814974023,134
1710814974030,144
1710814974038,154
1710814974046,152
1710814974053,137
1710814974061,122
1710814974069,110
1710814974076,90
1710814974084,58
1710814974092,24
1710814974099,-7
1710814974107,-36
1710814974115,-53
1710814974121,-53
1710814974129,-53
1710814974137,-68
1710814974145,-73
1710814974153,-66
1710814974161,-63
1710814974169,-61
1710814974176,-51
1710814974184,-41
1710814974192,-41
1710814974199,-41
1710814974207,-26
1710814974215,-9
1710814974222,-2
1710814974230,-2
1710814974238,-4
1710814974245,4
1710814974253,14
1710814974261,7
1710814974268,7
1710814974276,19
1710814974284,14
1710814974291,17
1710814974299,41
1710814974307,56
1710814974313,61
1710814974321,73
1710814974329,80
1710814974337,78
1710814974345,76
1710814974353,80
1710814974360,95
1710814974368,112
1710814974376,125
1710814974383,144
1710814974391,164
1710814974399,159
1710814974406,132
1710814974414,112
1710814974422,112
1710814974429,112
1710814974437,107
1710814974445,107
1710814974452,105
1710814974460,93
1710814974468,107
1710814974476,181
1710814974483,358
1710814974491,610
1710814974499,714
1710814974505,392
1710814974513,-166
1710814974521,-338
1710814974529,-88
1710814974537,22
1710814974545,-9
1710814974552,61
1710814974560,100
1710814974568,76
1710814974575,103
1710814974583,134
1710814974591,130
1710814974598,134
1710814974606,142
1710814974614,139
1710814974621,132
1710814974629,137
1710814974637,147
1710814974644,149
1710814974652,159
1710814974660,181
1710814974667,196
1710814974675,215
1710814974683,238
1710814974689,255
1710814974697,267
1710814974705,284
1710814974713,301
1710814974721,301
1710814974729,296
1710814974736,294
1710814974744,282
1710814974752,264
1710814974760,238
1710814974767,198
1710814974775,166
1710814974783,154
1710814974790,137
1710814974798,103
1710814974806,85
1710814974813,95
1710814974821,98
1710814974829,85
1710814974836,83
1710814974844,88
1710814974852,103
1710814974859,130
1710814974867,132
1710814974875,110
1710814974881,107
1710814974889,125
1710814974897,147
1710814974905,159
1710814974913,159
1710814974921,166
1710814974928,174
1710814974936,169
1710814974944,166
1710814974951,174
1710814974959,159
1710814974967,137
1710814974974,137
1710814974982,144
1710814974990,134
1710814974997,122
1710814975005,122
1710814975013,122
1710814975020,117
1710814975028,132
1710814975036,161
1710814975043,176
1710814975051,176
1710814975059,159
1710814975067,132
1710814975073,132
1710814975081,164
1710814975089,169
1710814975097,144
1710814975105,132
1710814975113,149
1710814975120,201
1710814975128,311
1710814975136,507
1710814975143,728
1710814975151,721
1710814975159,282
1710814975166,-228
1710814975174,-213
1710814975182,71
1710814975189,80
1710814975197,46
1710814975205,157
1710814975212,184
1710814975220,137
1710814975228,144
1710814975235,166
1710814975243,174
1710814975251,184
1710814975257,174
1710814975265,164
1710814975273,176
1710814975281,186
1710814975289,184
1710814975297,181
1710814975304,188
1710814975312,208
1710814975320,225
1710814975327,220
1710814975335,218
1710814975343,228
1710814975350,238
1710814975358,247
1710814975366,262
1710814975373,267
1710814975381,250
1710814975389,230
1710814975397,215
1710814975404,191
1710814975412,161
1710814975420,142
1710814975427,117
1710814975435,98
1710814975443,98
1710814975449,98
1710814975457,85
1710814975465,71
1710814975473,73
1710814975481,76
1710814975489,71
1710814975496,78
1710814975504,95
1710814975512,100
1710814975519,95
1710814975527,100
1710814975535,112
1710814975542,122
1710814975550,130
1710814975558,142
1710814975565,142
1710814975573,137
1710814975581,142
1710814975588,144
1710814975596,142
1710814975604,142
1710814975611,142
1710814975619,144
1710814975627,152
1710814975633,154
1710814975641,142
1710814975649,122
1710814975657,122
1710814975665,134
1710814975673,144
1710814975681,159
1710814975688,171
1710814975696,139
1710814975704,90
1710814975711,80
1710814975719,95
1710814975727,93
1710814975734,80
1710814975742,78
1710814975750,83
1710814975757,100
1710814975765,161
1710814975773,333
1710814975780,603
1710814975788,723
1710814975796,407
1710814975803,-174
1710814975811,-363
1710814975819,-76
1710814975825,53
1710814975833,-7
1710814975841,63
1710814975849,122
1710814975857,78
1710814975865,85
1710814975872,120
1710814975880,110
1710814975888,105
1710814975895,117
1710814975903,117
1710814975911,117
1710814975918,132
1710814975926,147
1710814975934,139
1710814975941,147
1710814975949,164
1710814975957,174
1710814975964,186
1710814975972,211
1710814975980,218
1710814975988,213
1710814975995,220
1710814976003,235
1710814976011,240
1710814976017,240
1710814976025,223
1710814976033,198
1710814976041,181
1710814976049,166
1710814976057,137
1710814976064,95
1710814976072,76
1710814976080,68
1710814976087,29
1710814976095,4
1710814976103,26
1710814976110,41
1710814976118,44
1710814976126,41
1710814976133,19
1710814976141,17
1710814976149,39
1710814976156,44
1710814976164,41
1710814976172,53
1710814976179,58
1710814976187,61
1710814976195,76
1710814976201,80
1710814976209,73
1710814976217,73
1710814976225,83
1710814976233,83
1710814976241,66
1710814976248,53
1710814976256,63
1710814976264,66
1710814976272,53
1710814976279,51
1710814976287,58
1710814976295,58
1710814976302,66
1710814976310,80
1710814976318,100
1710814976325,125
1710814976333,139
1710814976341,125
1710814976348,98
1710814976356,90
1710814976364,93
1710814976371,95
1710814976379,105
1710814976387,107
1710814976393,98
1710814976401,112
1710814976409,171
1710814976417,318
1710814976425,581
1710814976433,765
1710814976440,534
1710814976448,-56
1710814976456,-360
1710814976463,-132
1710814976471,46
1710814976479,-4
1710814976486,26
1710814976494,98
1710814976502,93
1710814976509,88
1710814976517,105
1710814976525,98
1710814976532,88
1710814976540,98
1710814976548,110
1710814976555,115
1710814976563,122
1710814976571,137
1710814976579,147
1710814976585,149
1710814976593,152
1710814976601,166
1710814976609,184
1710814976617,191
1710814976625,201
1710814976632,223
1710814976640,225
1710814976648,215
1710814976655,225
1710814976663,233
1710814976671,215
1710814976678,201
1710814976686,191
1710814976694,166
1710814976701,134
1710814976709,98
1710814976717,68
1710814976724,53
1710814976732,51
1710814976740,51
1710814976747,39
1710814976755,24
1710814976763,26
1710814976769,31
1710814976777,24
1710814976785,14
1710814976793,29
1710814976801,41
1710814976809,41
1710814976816,51
1710814976824,61
1710814976832,71
1710814976839,80
1710814976847,80
1710814976855,76
1710814976863,88
1710814976870,107
1710814976878,112
1710814976886,112
1710814976893,112
1710814976901,107
1710814976909,110
1710814976916,120
1710814976924,120
1710814976932,107
1710814976939,98
1710814976947,95
1710814976955,95
1710814976961,93
1710814976969,100
1710814976977,112
1710814976985,98
1710814976993,51
1710814977001,36
1710814977008,53
1710814977016,53
1710814977024,41
1710814977031,51
1710814977039,58
1710814977047,56
1710814977054,80
1710814977062,186
1710814977070,424
1710814977077,694
1710814977085,689
1710814977093,206
1710814977100,-336
1710814977108,-326
1710814977116,-44
1710814977123,-12
1710814977131,-26
1710814977139,49
1710814977145,46
1710814977153,19
1710814977161,34
1710814977169,34
1710814977177,39
1710814977185,61
1710814977193,56
1710814977200,39
1710814977208,46
1710814977216,71
1710814977223,85
1710814977231,83
1710814977239,85
1710814977246,112
1710814977254,139
1710814977262,125
1710814977269,115
1710814977277,147
1710814977285,174
1710814977292,176
1710814977300,181
1710814977308,176
1710814977315,154
1710814977323,137
1710814977331,115
1710814977337,83
1710814977345,53
1710814977353,22
1710814977361,-7
1710814977369,-14
1710814977377,-17
1710814977384,-31
1710814977392,-41
1710814977400,-36
1710814977407,-44
1710814977415,-49
1710814977423,-36
1710814977430,-14
1710814977438,0
1710814977446,4
1710814977453,7
1710814977461,14
1710814977469,14
1710814977477,19
1710814977484,36
1710814977492,39
1710814977500,24
1710814977507,22
1710814977515,29
1710814977523,29
1710814977529,22
1710814977537,22
1710814977545,26
1710814977553,31
1710814977561,41
1710814977569,41
1710814977576,24
1710814977584,17
1710814977592,29
1710814977599,41
1710814977607,36
1710814977615,31
1710814977622,44
1710814977630,61
1710814977638,56
1710814977645,36
1710814977653,14
1710814977661,0
1710814977668,0
1710814977676,0
1710814977684,-4
1710814977691,-2
1710814977699,0
1710814977707,17
1710814977713,130
1710814977721,380
1710814977729,633
1710814977737,581
1710814977745,58
1710814977753,-446
1710814977761,-368
1710814977768,-93
1710814977776,-90
1710814977784,-100
1710814977791,-9
1710814977799,-4
1710814977807,-31
1710814977814,-4
1710814977822,17
1710814977830,4
1710814977837,-4
1710814977845,12
1710814977853,29
1710814977860,24
1710814977868,14
1710814977876,24
1710814977883,39
1710814977891,51
1710814977899,66
1710814977905,78
1710814977913,93
1710814977921,105
1710814977929,120
1710814977937,144
1710814977945,154
1710814977952,139
1710814977960,139
1710814977968,157
1710814977975,149
1710814977983,125
1710814977991,105
1710814977998,68
1710814978006,22
1710814978014,-4
1710814978021,-14
1710814978029,-26
1710814978037,-34
1710814978044,-39
1710814978052,-53
1710814978060,-58
1710814978068,-44
1710814978075,-29
1710814978083,-22
1710814978091,-9
1710814978097,0
1710814978105,4
1710814978113,9
1710814978121,14
1710814978129,19
1710814978137,26
1710814978144,29
1710814978152,44
1710814978160,56
1710814978167,46
1710814978175,44
1710814978183,53
1710814978190,41
1710814978198,39
1710814978206,51
1710814978213,44
1710814978221,31
1710814978229,49
1710814978236,63
1710814978244,51
1710814978252,39
1710814978259,49
1710814978267,58
1710814978275,76
1710814978281,93
1710814978289,93
1710814978297,73
1710814978305,46
1710814978313,39
1710814978321,53
1710814978328,71
1710814978336,73
1710814978344,71
1710814978352,73
1710814978359,76
1710814978367,105
1710814978375,225
1710814978382,483
1710814978390,733
1710814978398,655
1710814978405,110
1710814978413,-363
1710814978421,-250
1710814978428,-7
1710814978436,-29
1710814978444,-12
1710814978451,83
1710814978459,71
1710814978467,26
1710814978473,44
1710814978481,73
1710814978489,80
1710814978497,71
1710814978505,63
1710814978513,78
1710814978520,100
1710814978528,112
1710814978536,115
1710814978543,105
1710814978551,103
1710814978559,134
1710814978566,166
1710814978574,164
1710814978582,169
1710814978589,196
1710814978597,211
1710814978605,203
1710814978612,201
1710814978620,215
1710814978628,218
1710814978635,198
1710814978643,161
1710814978651,122
1710814978659,105
1710814978665,88
1710814978673,51
1710814978681,22
1710814978689,17
1710814978697,24
1710814978705,22
1710814978712,26
1710814978720,44
1710814978728,56
1710814978735,63
1710814978743,80
1710814978751,88
1710814978758,71
1710814978766,66
1710814978774,83
1710814978781,88
1710814978789,73
1710814978797,73
1710814978804,85
1710814978812,85
1710814978820,80
1710814978827,85
1710814978835,85
1710814978843,88
1710814978849,93
1710814978857,90
1710814978865,90
1710814978873,100
1710814978881,107
1710814978889,100
1710814978896,100
1710814978904,107
1710814978912,105
1710814978919,105
1710814978927,117
1710814978935,134
1710814978943,142
1710814978950,125
1710814978958,100
1710814978966,100
1710814978973,120
1710814978981,132
1710814978989,127
1710814978996,125
1710814979004,134
1710814979012,147
1710814979019,188
1710814979027,314
1710814979035,544
1710814979041,748
1710814979049,618
1710814979057,85
1710814979065,-314
1710814979073,-149
1710814979081,88
1710814979088,49
1710814979096,49
1710814979104,127
1710814979111,120
1710814979119,103
1710814979127,125
1710814979134,134
1710814979142,134
1710814979150,137
1710814979157,134
1710814979165,139
1710814979173,149
1710814979180,144
1710814979188,137
1710814979196,154
1710814979203,171
1710814979211,164
1710814979219,176
1710814979225,208
1710814979233,223
1710814979241,235
1710814979249,250
1710814979257,242
1710814979265,240
1710814979273,247
1710814979280,235
1710814979288,211
1710814979296,159
1710814979303,107
1710814979311,103
1710814979319,103
1710814979326,66
1710814979334,44
1710814979342,41
1710814979349,19
1710814979357,9
1710814979365,31
1710814979372,31
1710814979380,14
1710814979388,24
1710814979395,46
1710814979403,39
1710814979411,26
1710814979417,29
1710814979425,39
1710814979433,51
1710814979441,61
1710814979449,61
1710814979457,66
1710814979464,78
1710814979472,76
1710814979480,61
1710814979487,58
1710814979495,63
1710814979503,51
1710814979510,39
1710814979518,44
1710814979526,46
1710814979533,39
1710814979541,41
1710814979549,39
1710814979557,26
1710814979564,26
1710814979572,46
1710814979580,58
1710814979587,58
1710814979595,56
1710814979603,34
1710814979609,9
1710814979617,19
1710814979625,31
1710814979633,24
1710814979641,22
1710814979649,26
1710814979656,34
1710814979664,56
1710814979672,164
1710814979679,404
1710814979687,633
1710814979695,544
1710814979702,41
1710814979710,-402
1710814979718,-326
1710814979725,-98
1710814979733,-93
1710814979741,-83
1710814979748,-22
1710814979756,-34
1710814979764,-41
1710814979771,-2
1710814979779,7
1710814979787,-4
1710814979793,-2
1710814979801,7
1710814979809,2
1710814979817,0
1710814979825,19
1710814979833,44
1710814979841,53
1710814979848,26
1710814979856,24
1710814979864,68
1710814979871,93
1710814979879,100
1710814979887,132
1710814979894,144
1710814979902,137
1710814979910,137
1710814979917,130
1710814979925,120
1710814979933,125
1710814979940,115
1710814979948,95
1710814979956,73
1710814979963,44
1710814979971,24
1710814979979,17
1710814979985,12
1710814979993,19
1710814980001,36
1710814980009,31
1710814980017,17
1710814980025,26
1710814980032,44
1710814980040,46
1710814980048,58
1710814980055,78
1710814980063,83
1710814980071,76
1710814980078,78
1710814980086,90
1710814980094,98
1710814980101,98
1710814980109,103
1710814980117,110
1710814980124,107
1710814980132,105
1710814980140,107
1710814980148,105
1710814980155,103
1710814980163,100
1710814980171,90
1710814980177,85
1710814980185,83
1710814980193,78
1710814980201,71
1710814980209,63
1710814980217,71
1710814980224,90
1710814980232,98
1710814980240,105
1710814980247,110
1710814980255,93
1710814980263,63
1710814980270,66
1710814980278,85
1710814980286,85
1710814980293,76
1710814980301,80
1710814980309,83
1710814980316,100
1710814980324,198
1710814980332,426
1710814980339,672
1710814980347,635
1710814980355,139
1710814980361,-382
1710814980369,-338
1710814980377,-56
1710814980385,-41
1710814980393,-56
1710814980401,26
1710814980408,24
1710814980416,-4
1710814980424,4
1710814980432,14
1710814980439,34
1710814980447,66
1710814980455,73
1710814980462,63
1710814980470,71
1710814980478,98
1710814980485,125
1710814980493,127
1710814980501,117
1710814980508,122
1710814980516,139
1710814980524,157
1710814980531,164
1710814980539,171
1710814980547,191
1710814980553,201
1710814980561,193
1710814980569,206
1710814980577,208
1710814980585,171
1710814980593,147
1710814980600,144
1710814980608,144
1710814980616,117
1710814980623,44
1710814980631,22
1710814980639,63
1710814980646,68
1710814980654,53
1710814980662,66
1710814980669,78
1710814980677,73
1710814980685,73
1710814980692,85
1710814980700,88
1710814980708,83
1710814980715,93
1710814980723,117
1710814980731,132
1710814980739,120
1710814980745,98
1710814980753,110
1710814980761,132
1710814980769,127
1710814980777,117
1710814980785,117
1710814980792,117
1710814980800,112
1710814980808,110
1710814980815,110
1710814980823,107
1710814980831,100
1710814980838,93
1710814980846,95
1710814980854,100
1710814980861,88
1710814980869,76
1710814980877,90
1710814980884,110
1710814980892,112
1710814980900,115
1710814980907,103
1710814980915,66
1710814980923,56
1710814980929,71
1710814980937,78
1710814980945,76
1710814980953,80
1710814980961,76
1710814980969,71
1710814980976,144
1710814980984,345
1710814980992,630
1710814980999,770
1710814981007,461
1710814981015,-159
1710814981023,-385
1710814981030,-105
1710814981038,24
1710814981046,-26
1710814981053,49
1710814981061,103
1710814981069,66
1710814981076,80
1710814981084,115
1710814981092,105
1710814981099,93
1710814981107,95
1710814981115,98
1710814981121,112
1710814981129,132
1710814981137,130
1710814981145,122
1710814981153,130
1710814981161,139
1710814981168,154
1710814981176,169
1710814981184,181
1710814981191,188
1710814981199,191
1710814981207,203
1710814981214,223
1710814981222,215
1710814981230,198
1710814981237,211
1710814981245,220
1710814981253,203
1710814981260,179
1710814981268,149
1710814981276,112
1710814981283,85
1710814981291,83
1710814981299,80
1710814981305,68
1710814981313,58
1710814981321,58
1710814981329,63
1710814981337,71
1710814981345,71
1710814981353,68
1710814981360,76
1710814981368,80
1710814981376,83
1710814981383,88
1710814981391,90
1710814981399,85
1710814981406,88
1710814981414,100
1710814981422,105
1710814981429,103
1710814981437,95
1710814981445,93
1710814981452,95
1710814981460,95
1710814981468,95
1710814981475,103
1710814981483,103
1710814981491,90
1710814981497,93
1710814981505,110
1710814981513,110
1710814981521,98
1710814981529,105
1710814981537,125
1710814981544,139
1710814981552,139
1710814981560,125
1710814981567,95
1710814981575,83
1710814981583,95
1710814981590,100
1710814981598,90
1710814981606,80
1710814981613,76
1710814981621,88
1710814981629,147
1710814981637,291
1710814981644,532
1710814981652,696
1710814981660,476
1710814981667,-100
1710814981675,-399
1710814981683,-154
1710814981689,36
1710814981697,-22
1710814981705,4
1710814981713,76
1710814981721,56
1710814981729,44
1710814981736,76
1710814981744,85
1710814981752,88
1710814981759,98
1710814981767,110
1710814981775,130
1710814981782,134
1710814981790,120
1710814981798,127
1710814981805,157
1710814981813,174
1710814981821,176
1710814981828,193
1710814981836,213
1710814981844,218
1710814981851,223
1710814981859,242
1710814981867,264
1710814981873,252
1710814981881,230
1710814981889,233
1710814981897,230
1710814981905,203
1710814981913,179
1710814981921,154
1710814981928,125
1710814981936,95
1710814981944,76
1710814981951,73
1710814981959,58
1710814981967,39
1710814981974,34
1710814981982,39
1710814981990,49
1710814981997,61
1710814982005,63
1710814982013,71
1710814982020,76
1710814982028,63
1710814982036,66
1710814982043,93
1710814982051,105
1710814982059,95
1710814982065,95
1710814982073,100
1710814982081,88
1710814982089,80
1710814982097,90
1710814982105,90
1710814982112,78
1710814982120,80
1710814982128,85
1710814982135,80
1710814982143,73
1710814982151,66
1710814982158,58
1710814982166,61
1710814982174,76
1710814982181,93
1710814982189,115
1710814982197,125
1710814982204,88
1710814982212,34
1710814982220,39
1710814982228,71
1710814982235,71
1710814982243,71
1710814982251,76
1710814982257,76
1710814982265,90
1710814982273,159
1710814982281,328
1710814982289,591
1710814982297,723
1710814982304,417
1710814982312,-179
1710814982320,-385
1710814982327,-134
1710814982335,-29
1710814982343,-83
1710814982350,7
1710814982358,76
1710814982366,29
1710814982373,17
1710814982381,58
1710814982389,68
1710814982396,39
1710814982404,29
1710814982412,44
1710814982419,58
1710814982427,66
1710814982435,71
1710814982441,78
1710814982449,85
1710814982457,95
1710814982465,122
1710814982473,147
1710814982481,154
1710814982488,161
1710814982496,174
1710814982504,181
1710814982512,188
1710814982519,203
1710814982527,203
1710814982535,193
1710814982542,179
1710814982550,149
1710814982558,122
1710814982565,100
1710814982573,68
1710814982581,34
1710814982588,26
1710814982596,26
1710814982604,17
1710814982611,0
1710814982619,0
1710814982627,2
1710814982633,0
1710814982641,0
1710814982649,0
1710814982657,-2
1710814982665,-4
1710814982673,2
1710814982680,2
1710814982688,-12
1710814982696,-19
1710814982703,-12
1710814982711,-14
1710814982719,-26
1710814982726,-24
1710814982734,-9
1710814982742,-4
1710814982749,-9
1710814982757,-17
1710814982765,-17
1710814982772,-17
1710814982780,-12
1710814982788,-14
1710814982795,-22
1710814982803,-26
1710814982811,-29
1710814982819,-22
1710814982825,-14
1710814982833,-12
1710814982841,-9
1710814982849,-9
1710814982857,-26
1710814982865,-46
1710814982872,-46
1710814982880,-34
1710814982888,-22
1710814982895,-29
1710814982903,-44
1710814982911,-53
1710814982918,-36
1710814982926,73
1710814982934,326
1710814982941,588
1710814982949,564
1710814982957,78
1710814982964,-453
1710814982972,-426
1710814982980,-127
1710814982987,-83
1710814982995,-95
1710814983003,-17
1710814983009,-2
1710814983017,-19
1710814983025,-2
1710814983033,9
1710814983041,4
1710814983049,9
1710814983056,26
1710814983064,36
1710814983072,34
1710814983079,44
1710814983087,58
1710814983095,68
1710814983103,85
1710814983110,105
1710814983118,112
1710814983126,122
1710814983133,144
1710814983141,154
1710814983149,157
1710814983156,181
1710814983164,206
1710814983172,203
1710814983179,196
1710814983187,179
1710814983195,142
1710814983201,115
1710814983209,103
1710814983217,61
1710814983225,17
1710814983233,4
1710814983241,0
1710814983248,-17
1710814983256,-17
1710814983264,-4
1710814983271,-2
1710814983279,-7
1710814983287,-19
1710814983294,-19
1710814983302,4
1710814983310,19
1710814983317,4
1710814983325,-2
1710814983333,2
1710814983340,2
1710814983348,2
1710814983356,4
1710814983363,-4
1710814983371,-14
1710814983379,-12
1710814983385,-4
1710814983393,0
1710814983401,-7
1710814983409,-17
1710814983417,-14
1710814983425,-2
1710814983433,2
1710814983440,-2
1710814983448,-7
1710814983456,0
1710814983463,17
1710814983471,29
1710814983479,41
1710814983486,53
1710814983494,53
1710814983502,31
1710814983509,7
1710814983517,2
1710814983525,17
1710814983532,14
1710814983540,4
1710814983548,2
1710814983555,-7
1710814983563,-9
1710814983571,49
1710814983577,233
1710814983585,510
1710814983593,650
1710814983601,345
1710814983609,-272
1710814983617,-520
1710814983624,-257
1710814983632,-103
1710814983640,-130
1710814983647,-56
1710814983655,-7
1710814983663,-44
1710814983670,-26
1710814983678,14
1710814983686,12
1710814983693,14
1710814983701,34
1710814983709,41
1710814983717,29
1710814983724,2
1710814983732,17
1710814983740,90
1710814983747,130
1710814983755,103
1710814983763,88
1710814983769,127
1710814983777,164
1710814983785,174
1710814983793,191
1710814983801,215
1710814983809,238
1710814983816,247
1710814983824,252
1710814983832,247
1710814983839,225
1710814983847,184
1710814983855,142
1710814983862,115
1710814983870,95
1710814983878,73
1710814983885,51
1710814983893,39
1710814983901,41
1710814983908,39
1710814983916,24
1710814983924,14
1710814983931,19
1710814983939,22
1710814983947,12
1710814983953,14
1710814983961,26
1710814983969,24
1710814983977,24
1710814983985,34
1710814983993,36
1710814984001,31
1710814984008,31
1710814984016,39
1710814984024,39
1710814984031,46
1710814984039,56
1710814984047,51
1710814984054,46
1710814984062,58
1710814984070,66
1710814984077,61
1710814984085,66
1710814984093,68
1710814984100,63
1710814984108,61
1710814984116,63
1710814984123,68
1710814984131,61
1710814984139,53
1710814984145,44
1710814984153,41
1710814984161,56
1710814984169,66
1710814984177,68
1710814984185,68
1710814984192,66
1710814984200,71
1710814984208,105
1710814984215,220
1710814984223,449
1710814984231,672
1710814984238,579
1710814984246,61
1710814984254,-377
1710814984261,-238
1710814984269,22
1710814984277,-24
1710814984284,-34
1710814984292,73
1710814984300,73
1710814984308,44
1710814984315,61
1710814984323,63
1710814984331,71
1710814984337,85
1710814984345,80
1710814984353,88
1710814984361,122
1710814984369,134
1710814984377,115
1710814984384,120
1710814984392,149
1710814984400,157
1710814984407,157
1710814984415,176
1710814984423,196
1710814984430,203
1710814984438,215
1710814984446,228
1710814984453,225
1710814984461,218
1710814984469,206
1710814984476,176
1710814984484,147
1710814984492,130
1710814984499,103
1710814984507,73
1710814984515,56
1710814984521,41
1710814984529,29
1710814984537,22
1710814984545,12
1710814984553,9
1710814984561,17
1710814984568,17
1710814984576,14
1710814984584,14
1710814984592,12
1710814984599,14
1710814984607,19
1710814984615,24
1710814984622,31
1710814984630,36
1710814984638,36
1710814984645,44
1710814984653,51
1710814984661,46
1710814984668,29
1710814984676,22
1710814984684,31
1710814984691,41
1710814984699,34
1710814984707,29
1710814984713,41
1710814984721,49
1710814984729,44
1710814984737,26
1710814984745,17
1710814984753,46
1710814984760,85
1710814984768,90
1710814984776,58
1710814984783,31
1710814984791,39
1710814984799,63
1710814984806,68
1710814984814,66
1710814984822,73
1710814984829,95
1710814984837,132
1710814984845,238
1710814984852,473
1710814984860,709
1710814984868,623
1710814984875,127
1710814984883,-306
1710814984891,-213
1710814984899,31
1710814984905,12
1710814984913,0
1710814984921,98
1710814984929,107
1710814984937,73
1710814984945,98
1710814984952,127
1710814984960,122
1710814984968,115
1710814984975,120
1710814984983,132
1710814984991,137
1710814984998,130
1710814985006,144
1710814985014,171
1710814985021,169
1710814985029,149
1710814985037,152
1710814985044,181
1710814985052,203
1710814985060,206
1710814985067,215
1710814985075,238
1710814985083,230
1710814985089,211
1710814985097,206
1710814985105,198
1710814985113,166
1710814985121,132
1710814985129,112
1710814985136,93
1710814985144,73
1710814985152,56
1710814985159,39
1710814985167,29
1710814985175,36
1710814985183,41
1710814985190,26
1710814985198,14
1710814985206,24
1710814985213,29
1710814985221,29
1710814985229,41
1710814985236,49
1710814985244,39
1710814985252,39
1710814985259,49
1710814985267,51
1710814985275,56
1710814985281,68
1710814985289,76
1710814985297,73
1710814985305,78
1710814985313,83
1710814985321,80
1710814985328,85
1710814985336,85
1710814985344,85
1710814985351,95
1710814985359,90
1710814985367,78
1710814985374,73
1710814985382,80
1710814985390,98
1710814985397,117
1710814985405,127
1710814985413,110
1710814985420,71
1710814985428,58
1710814985436,66
1710814985443,66
1710814985451,80
1710814985459,107
1710814985465,107
1710814985473,110
1710814985481,198
1710814985489,417
1710814985497,674
1710814985505,706
1710814985513,287
1710814985520,-257
1710814985528,-284
1710814985536,12
1710814985543,58
1710814985551,19
1710814985559,105
1710814985566,120
1710814985574,78
1710814985582,110
1710814985589,142
1710814985597,130
1710814985605,132
1710814985612,142
1710814985620,139
1710814985628,159
1710814985635,181
1710814985643,191
1710814985651,193
1710814985657,201
1710814985665,215
1710814985673,220
1710814985681,233
1710814985689,260
1710814985697,277
1710814985704,274
1710814985712,272
1710814985720,274
1710814985727,277
1710814985735,279
1710814985743,277
1710814985750,250
1710814985758,213
1710814985766,196
1710814985773,169
1710814985781,120
1710814985789,88
1710814985797,88
1710814985804,88
1710814985812,83
1710814985820,76
1710814985827,68
1710814985835,71
1710814985843,68
1710814985849,61
1710814985857,71
1710814985865,80
1710814985873,78
1710814985881,78
1710814985889,78
1710814985896,88
1710814985904,98
1710814985912,93
1710814985919,95
1710814985927,95
1710814985935,88
1710814985942,83
1710814985950,85
1710814985958,88
1710814985965,90
1710814985973,88
1710814985981,83
1710814985988,93
1710814985996,100
1710814986004,90
1710814986011,98
1710814986019,117
1710814986027,127
1710814986033,137
1710814986041,137
1710814986049,122
1710814986057,115
1710814986065,115
1710814986073,112
1710814986081,115
1710814986088,120
1710814986096,110
1710814986104,98
1710814986111,115
1710814986119,186
1710814986127,368
1710814986134,650
1710814986142,819
1710814986150,561
1710814986157,-44
1710814986165,-338
1710814986173,-107
1710814986180,58
1710814986188,31
1710814986196,93
1710814986203,134
1710814986211,90
1710814986219,112
1710814986225,166
1710814986233,154
1710814986241,147
1710814986249,166
1710814986257,159
1710814986265,142
1710814986272,154
1710814986280,176
1710814986288,181
1710814986295,181
1710814986303,203
1710814986311,206
1710814986318,179
1710814986326,201
1710814986334,257
1710814986341,282
1710814986349,289
1710814986357,301
1710814986364,309
1710814986372,301
1710814986380,291
1710814986388,279
1710814986395,255
1710814986403,220
1710814986411,191
1710814986417,161
1710814986425,137
1710814986433,130
1710814986441,115
1710814986449,80
1710814986457,58
1710814986464,66
1710814986472,73
1710814986480,61
1710814986487,46
1710814986495,56
1710814986503,68
1710814986510,73
1710814986518,80
1710814986526,78
1710814986533,76
1710814986541,85
1710814986549,93
1710814986556,90
1710814986564,83
1710814986572,88
1710814986579,105
1710814986587,115
1710814986595,110
1710814986601,107
1710814986609,110
1710814986617,110
1710814986625,107
1710814986633,110
1710814986641,107
1710814986648,98
1710814986656,95
1710814986664,110
1710814986672,112
1710814986679,107
1710814986687,117
1710814986695,115
1710814986702,88
1710814986710,85
1710814986718,90
1710814986725,76
1710814986733,63
1710814986741,80
1710814986748,105
1710814986756,103
1710814986764,120
1710814986771,245
1710814986779,502
1710814986787,745
1710814986793,633
1710814986801,46
1710814986809,-409
1710814986817,-247
1710814986825,2
1710814986833,-29
1710814986840,-12
1710814986848,83
1710814986856,78
1710814986863,68
1710814986871,107
1710814986879,122
1710814986886,115
1710814986894,120
1710814986902,132
1710814986909,137
1710814986917,132
1710814986925,130
1710814986932,137
1710814986940,142
1710814986948,147
1710814986955,166
1710814986963,188
1710814986971,206
1710814986979,225
1710814986985,247
1710814986993,267
1710814987001,267
1710814987009,252
1710814987017,255
1710814987025,262
1710814987032,252
1710814987040,228
1710814987048,196
1710814987055,161
1710814987063,132
1710814987071,100
1710814987078,63
1710814987086,49
1710814987094,46
1710814987101,36
1710814987109,39
1710814987117,44
1710814987124,41
1710814987132,41
1710814987140,44
1710814987147,51
1710814987155,58
1710814987163,53
1710814987169,53
1710814987177,56
1710814987185,51
1710814987193,53
1710814987201,63
1710814987209,68
1710814987216,66
1710814987224,61
1710814987232,61
1710814987239,63
1710814987247,63
1710814987255,68
1710814987263,66
1710814987270,56
1710814987278,56
1710814987286,61
1710814987293,58
1710814987301,49
1710814987309,49
1710814987316,58
1710814987324,73
1710814987332,85
1710814987339,88
1710814987347,85
1710814987355,68
1710814987361,44
1710814987369,31
1710814987377,34
1710814987385,44
1710814987393,49
1710814987401,51
1710814987408,53
1710814987416,73
1710814987424,166
1710814987431,385
1710814987439,667
1710814987447,736
1710814987454,321
1710814987462,-294
1710814987470,-409
1710814987477,-120
1710814987485,-34
1710814987493,-49
1710814987500,39
1710814987508,66
1710814987516,39
1710814987523,71
1710814987531,98
1710814987539,83
1710814987545,80
1710814987553,78
1710814987561,73
1710814987569,83
1710814987577,100
1710814987585,107
1710814987593,117
1710814987600,132
1710814987608,139
1710814987616,152
1710814987623,179
1710814987631,201
1710814987639,223
1710814987646,242
1710814987654,252
1710814987662,264
1710814987669,269
1710814987677,260
1710814987685,250
1710814987692,228
1710814987700,196
1710814987708,164
1710814987715,125
1710814987723,90
1710814987731,61
1710814987737,41
1710814987745,31
1710814987753,31
1710814987761,22
1710814987769,9
1710814987777,2
1710814987784,2
1710814987792,12
1710814987800,22
1710814987807,22
1710814987815,19
1710814987823,26
1710814987830,41
1710814987838,51
1710814987846,58
1710814987853,73
1710814987861,83
1710814987869,80
1710814987877,80
1710814987884,95
1710814987892,107
1710814987900,110
1710814987907,98
1710814987915,88
1710814987923,100
1710814987929,110
1710814987937,107
1710814987945,105
1710814987953,107
1710814987961,105
1710814987969,110
1710814987976,130
1710814987984,149
1710814987992,157
1710814987999,149
1710814988007,132
1710814988015,112
1710814988022,110
1710814988030,117
1710814988038,115
1710814988045,110
1710814988053,110
1710814988061,117
1710814988068,144
1710814988076,238
1710814988084,453
1710814988091,699
1710814988099,669
1710814988107,186
1710814988113,-323
1710814988121,-274
1710814988129,4
1710814988137,24
1710814988145,9
1710814988153,98
1710814988161,112
1710814988168,90
1710814988176,112
1710814988184,130
1710814988191,132
1710814988199,139
1710814988207,144
1710814988214,149
1710814988222,152
1710814988230,154
1710814988237,159
1710814988245,171
1710814988253,186
1710814988260,198
1710814988268,213
1710814988276,220
1710814988283,213
1710814988291,218
1710814988299,220
1710814988305,213
1710814988313,220
1710814988321,228
1710814988329,223
1710814988337,218
1710814988345,203
1710814988352,161
1710814988360,120
1710814988368,93
1710814988375,71
1710814988383,53
1710814988391,44
1710814988398,34
1710814988406,26
1710814988414,22
1710814988421,17
1710814988429,22
1710814988437,29
1710814988444,26
1710814988452,22
1710814988460,31
1710814988468,58
1710814988475,68
1710814988483,44
1710814988491,31
1710814988497,53
1710814988505,66
1710814988513,63
1710814988521,63
1710814988529,61
1710814988537,58
1710814988544,63
1710814988552,63
1710814988560,56
1710814988567,51
1710814988575,53
1710814988583,58
1710814988590,63
1710814988598,58
1710814988606,56
1710814988613,56
1710814988621,46
1710814988629,44
1710814988636,71
1710814988644,83
1710814988652,63
1710814988659,39
1710814988667,31
1710814988675,34
1710814988681,36
1710814988689,41
1710814988697,39
1710814988705,36
1710814988713,36
1710814988721,68
1710814988728,191
1710814988736,446
1710814988744,716
1710814988752,694
1710814988759,186
1710814988767,-355
1710814988775,-323
1710814988782,-53
1710814988790,-51
1710814988798,-71
1710814988805,26
1710814988813,39
1710814988821,9
1710814988828,44
1710814988836,58
1710814988844,49
1710814988851,71
1710814988859,88
1710814988867,78
1710814988873,83
1710814988881,117
1710814988889,130
1710814988897,115
1710814988905,130
1710814988913,188
1710814988920,215
1710814988928,223
1710814988936,252
1710814988943,274
1710814988951,274
1710814988959,282
1710814988966,299
1710814988974,301
1710814988982,294
1710814988989,279
1710814988997,255
1710814989005,225
1710814989012,188
1710814989020,147
1710814989028,115
1710814989035,103
1710814989043,93
1710814989051,71
1710814989059,56
1710814989065,56
1710814989073,58
1710814989081,53
1710814989089,61
1710814989097,76
1710814989105,78
1710814989112,66
1710814989120,63
1710814989128,76
1710814989135,80
1710814989143,83
1710814989151,95
1710814989158,100
1710814989166,93
1710814989174,93
1710814989181,110
1710814989189,115
1710814989197,103
1710814989204,105
1710814989212,112
1710814989220,115
1710814989227,122
1710814989235,125
1710814989243,125
1710814989249,132
1710814989257,134
1710814989265,127
1710814989273,120
1710814989281,120
1710814989289,127
1710814989296,127
1710814989304,127
1710814989312,142
1710814989319,139
1710814989327,100
1710814989335,83
1710814989343,100
1710814989350,107
1710814989358,93
1710814989366,85
1710814989373,103
1710814989381,122
1710814989389,164
1710814989396,358
1710814989404,679
1710814989412,819
1710814989419,473
1710814989427,-157
1710814989435,-355
1710814989441,-63
1710814989449,68
1710814989457,14
1710814989465,78
1710814989473,130
1710814989481,98
1710814989488,107
1710814989496,127
1710814989504,122
1710814989511,130
1710814989519,132
1710814989527,120
1710814989534,132
1710814989542,157
1710814989550,171
1710814989557,184
1710814989565,181
1710814989573,176
1710814989580,191
1710814989588,215
1710814989596,233
1710814989603,250
1710814989611,264
1710814989619,264
1710814989625,250
1710814989633,255
1710814989641,267
1710814989649,257
1710814989657,238
1710814989665,213
1710814989673,181
1710814989680,144
1710814989688,112
1710814989696,90
1710814989703,66
1710814989711,31
1710814989719,12
1710814989726,17
1710814989734,24
1710814989742,22
1710814989749,19
1710814989757,19
1710814989765,22
1710814989772,24
1710814989780,24
1710814989788,24
1710814989795,22
1710814989803,17
1710814989811,14
1710814989817,22
1710814989825,29
1710814989833,31
1710814989841,36
1710814989849,41
1710814989857,41
1710814989864,41
1710814989872,46
1710814989880,51
1710814989887,41
1710814989895,31
1710814989903,39
1710814989910,51
1710814989918,44
1710814989926,34
1710814989933,34
1710814989941,29
1710814989949,26
1710814989957,39
1710814989964,61
1710814989972,76
1710814989980,78
1710814989987,56
1710814989995,26
1710814990003,22
1710814990009,34
1710814990017,39
1710814990025,39
1710814990033,31
1710814990041,17
1710814990049,26
1710814990056,78
1710814990064,198
1710814990072,449
1710814990079,723
1710814990087,689
1710814990095,154
1710814990102,-407
1710814990110,-355
1710814990118,-53
1710814990125,-51
1710814990133,-80
1710814990141,19
1710814990148,56
1710814990156,51
1710814990164,98
1710814990171,112
1710814990179,80
1710814990187,73
1710814990193,103
1710814990201,132
1710814990209,137
1710814990217,142
1710814990225,159
1710814990233,169
1710814990240,179
1710814990248,184
1710814990256,186
1710814990264,191
1710814990271,191
1710814990279,186
1710814990287,186
1710814990294,198
1710814990302,203
1710814990310,191
1710814990317,186
1710814990325,186
1710814990333,166
1710814990340,130
1710814990348,98
1710814990356,80
1710814990363,61
1710814990371,36
1710814990379,17
1710814990385,4
1710814990393,-9
1710814990401,-22
1710814990409,-14
1710814990417,2
1710814990425,4
1710814990432,-4
1710814990440,-4
1710814990448,9
1710814990455,17
1710814990463,17
1710814990471,26
1710814990478,39
1710814990486,46
1710814990494,56
1710814990501,61
1710814990509,58
1710814990517,53
1710814990524,56
1710814990532,61
1710814990540,61
1710814990548,58
1710814990555,61
1710814990563,63
1710814990571,68
1710814990577,61
1710814990585,51
1710814990593,53
1710814990601,56
1710814990609,39
1710814990617,31
1710814990624,49
1710814990632,53
1710814990640,56
1710814990647,80
1710814990655,110
1710814990663,103
1710814990670,66
1710814990678,49
1710814990686,46
1710814990693,41
1710814990701,66
1710814990709,90
1710814990716,83
1710814990724,83
1710814990732,166
1710814990739,382
1710814990747,652
1710814990755,704
1710814990761,291
1710814990769,-274
1710814990777,-341
1710814990785,-61
1710814990793,-4
1710814990801,-29
1710814990809,58
1710814990816,76
1710814990824,49
1710814990832,80
1710814990839,78
1710814990847,53
1710814990855,71
1710814990862,90
1710814990870,98
1710814990878,110
1710814990885,120
1710814990893,120
1710814990901,120
1710814990908,137
1710814990916,169
1710814990924,193
1710814990931,203
1710814990939,211
1710814990947,228
1710814990953,250
1710814990961,260
1710814990969,250
1710814990977,247
1710814990985,250
1710814990993,235
1710814991000,208
1710814991008,184
1710814991016,154
1710814991023,120
1710814991031,95
1710814991039,68
1710814991046,29
1710814991054,2
1710814991062,2
1710814991069,4
1710814991077,0
1710814991085,4
1710814991092,17
1710814991100,22
1710814991108,22
1710814991116,31
1710814991123,46
1710814991131,58
1710814991139,56
1710814991145,39
1710814991153,34
1710814991161,53
1710814991169,68
1710814991177,66
1710814991185,66
1710814991192,73
1710814991200,73
1710814991208,53
1710814991215,36
1710814991223,51
1710814991231,73
1710814991238,76
1710814991246,80
1710814991254,98
1710814991261,83
1710814991269,56
1710814991277,56
1710814991284,71
1710814991292,95
1710814991300,120
1710814991307,137
1710814991315,139
1710814991323,110
1710814991329,98
1710814991337,127
1710814991345,117
1710814991353,90
1710814991361,93
1710814991369,93
1710814991376,98
1710814991384,115
1710814991392,110
1710814991400,100
1710814991407,115
1710814991415,193
1710814991423,409
1710814991430,718
1710814991438,883
1710814991446,581
1710814991453,-53
1710814991461,-294
1710814991469,-17
1710814991476,120
1710814991484,68
1710814991492,137
1710814991499,191
1710814991507,152
1710814991515,154
1710814991521,191
1710814991529,188
1710814991537,179
1710814991545,191
1710814991553,203
1710814991561,206
1710814991568,208
1710814991576,218
1710814991584,225
1710814991591,230
1710814991599,230
1710814991607,235
1710814991614,242
1710814991622,245
1710814991630,252
1710814991637,264
1710814991645,274
1710814991653,284
1710814991660,291
1710814991668,287
1710814991676,274
1710814991683,255
1710814991691,220
1710814991699,188
1710814991707,164
1710814991713,134
1710814991721,103
1710814991729,76
1710814991737,56
1710814991745,41
1710814991753,29
1710814991760,22
1710814991768,17
1710814991776,19
1710814991783,22
1710814991791,22
1710814991799,34
1710814991806,44
1710814991814,39
1710814991822,31
1710814991829,24
1710814991837,24
1710814991845,39
1710814991852,49
1710814991860,44
1710814991868,36
1710814991875,29
1710814991883,26
1710814991891,36
1710814991897,39
1710814991905,36
1710814991913,41
1710814991921,39
1710814991929,31
1710814991937,34
1710814991944,44
1710814991952,53
1710814991960,53
1710814991967,58
1710814991975,68
1710814991983,66
1710814991991,63
1710814991998,71
1710814992006,68
1710814992014,51
1710814992021,53
1710814992029,90
1710814992037,115
1710814992044,95
1710814992052,68
1710814992060,76
1710814992067,85
1710814992075,85
1710814992083,98
1710814992089,115
1710814992097,122
1710814992105,139
1710814992113,196
1710814992121,343
1710814992129,603
1710814992136,817
1710814992144,667
1710814992152,98
1710814992159,-316
1710814992167,-161
1710814992175,63
1710814992182,41
1710814992190,61
1710814992198,132
1710814992205,112
1710814992213,98
1710814992221,134
1710814992228,137
1710814992236,112
1710814992244,117
1710814992251,132
1710814992259,134
1710814992267,137
1710814992273,137
1710814992281,130
1710814992289,139
1710814992297,159
1710814992305,159
1710814992313,159
1710814992321,179
1710814992328,184
1710814992336,171
1710814992344,181
1710814992351,196
1710814992359,203
1710814992367,206
1710814992374,196
1710814992382,174
1710814992390,159
1710814992397,139
1710814992405,100
1710814992413,58
1710814992420,34
1710814992428,22
1710814992436,7
1710814992443,-7
1710814992451,-14
1710814992459,-24
1710814992465,-26
1710814992473,-14
1710814992481,-9
1710814992489,-9
1710814992497,-7
1710814992505,-2
1710814992512,7
1710814992520,12
1710814992528,12
1710814992535,19
1710814992543,29
1710814992551,24
1710814992558,41
1710814992566,71
1710814992574,61
1710814992581,41
1710814992589,46
1710814992597,49
1710814992605,51
1710814992612,63
1710814992620,58
1710814992628,53
1710814992635,53
1710814992643,51
1710814992651,51
1710814992657,61
1710814992665,83
1710814992673,98
1710814992681,95
1710814992689,105
1710814992697,130
1710814992704,142
1710814992712,139
1710814992720,132
1710814992727,120
1710814992735,122
1710814992743,137
1710814992750,142
1710814992758,137
1710814992766,132
1710814992773,130
1710814992781,152
1710814992789,225
1710814992796,417
1710814992804,687
1710814992812,780
1710814992819,419
1710814992827,-169
1710814992835,-311
1710814992841,-39
1710814992849,46
1710814992857,0
1710814992865,76
1710814992873,117
1710814992881,85
1710814992889,95
1710814992896,120
1710814992904,120
1710814992912,122
1710814992919,130
1710814992927,130
1710814992935,134
1710814992942,142
1710814992950,142
1710814992958,139
1710814992965,147
1710814992973,159
1710814992981,164
1710814992988,171
1710814992996,191
1710814993004,208
1710814993011,220
1710814993019,228
1710814993027,233
1710814993033,228
1710814993041,220
1710814993049,206
1710814993057,179
1710814993065,139
1710814993073,98
1710814993080,71
1710814993088,44
1710814993096,12
1710814993103,-12
1710814993111,-29
1710814993119,-34
1710814993126,-39
1710814993134,-46
1710814993142,-41
1710814993149,-31
1710814993157,-24
1710814993165,-19
1710814993172,-12
1710814993180,-2
1710814993188,12
1710814993196,19
1710814993203,24
1710814993211,34
1710814993219,36
1710814993225,41
1710814993233,49
1710814993241,46
1710814993249,49
1710814993257,53
1710814993265,56
1710814993272,56
1710814993280,53
1710814993288,51
1710814993295,56
1710814993303,56
1710814993311,49
1710814993318,51
1710814993326,51
1710814993334,46
1710814993341,56
1710814993349,63
1710814993357,61
1710814993364,61
1710814993372,78
1710814993380,103
1710814993387,100
1710814993395,90
1710814993403,98
1710814993409,115
1710814993417,127
1710814993425,137
1710814993433,130
1710814993441,103
1710814993449,95
1710814993456,112
1710814993464,125
1710814993472,127
1710814993480,105
1710814993487,83
1710814993495,93
1710814993503,157
1710814993510,318
1710814993518,596
1710814993526,804
1710814993533,613
1710814993541,9
1710814993549,-372
1710814993556,-184
1710814993564,14
1710814993572,-29
1710814993579,-7
1710814993587,56
1710814993595,34
1710814993601,22
1710814993609,49
1710814993617,53
1710814993625,53
1710814993633,63
1710814993641,68
1710814993648,68
1710814993656,76
1710814993664,83
1710814993671,83
1710814993679,73
1710814993687,80
1710814993694,110
1710814993702,127
1710814993710,122
1710814993717,122
1710814993725,147
1710814993733,176
1710814993740,184
1710814993748,188
1710814993756,188
1710814993763,176
1710814993771,161
1710814993779,154
1710814993785,137
1710814993793,103
1710814993801,63
1710814993809,41
1710814993817,19
1710814993825,2
1710814993833,0
1710814993840,0
1710814993848,-12
1710814993856,-31
1710814993863,-26
1710814993871,-2
1710814993879,-4
1710814993886,-12
1710814993894,2
1710814993902,17
1710814993909,26
1710814993917,39
1710814993925,49
1710814993932,53
1710814993940,56
1710814993948,56
1710814993955,66
1710814993963,85
1710814993971,93
1710814993977,98
1710814993985,115
1710814993993,130
1710814994001,127
1710814994009,132
1710814994017,134
1710814994024,130
1710814994032,132
1710814994040,132
1710814994047,125
1710814994055,122
1710814994063,117
1710814994071,112
1710814994078,107
1710814994086,105
1710814994094,105
1710814994101,117
1710814994109,132
1710814994117,134
1710814994124,144
1710814994132,157
1710814994140,137
1710814994147,103
1710814994155,100
1710814994163,117
1710814994169,120
1710814994177,105
1710814994185,95
1710814994193,95
1710814994201,100
1710814994209,159
1710814994216,353
1710814994224,650
1710814994232,787
1710814994239,449
1710814994247,-184
1710814994255,-382
1710814994262,-107
1710814994270,4
1710814994278,-34
1710814994285,31
1710814994293,71
1710814994301,44
1710814994308,63
1710814994316,83
1710814994324,71
1710814994331,76
1710814994339,95
1710814994347,98
1710814994355,80
1710814994361,71
1710814994369,85
1710814994377,117
1710814994385,120
1710814994393,107
1710814994401,125
1710814994408,147
1710814994416,147
1710814994424,157
1710814994431,179
1710814994439,184
1710814994447,179
1710814994454,186
1710814994462,184
1710814994470,161
1710814994477,147
1710814994485,142
1710814994493,117
1710814994500,83
1710814994508,58
1710814994516,44
1710814994523,36
1710814994531,22
1710814994539,4
1710814994545,4
1710814994553,12
1710814994561,7
1710814994569,2
1710814994577,9
1710814994585,12
1710814994592,9
1710814994600,22
1710814994608,29
1710814994615,29
1710814994623,41
1710814994631,49
1710814994639,39
1710814994646,51
1710814994654,78
1710814994662,83
1710814994669,90
1710814994677,103
1710814994685,93
1710814994692,78
1710814994700,80
1710814994708,83
1710814994715,85
1710814994723,93
1710814994731,93
1710814994737,93
1710814994745,85
1710814994753,73
1710814994761,71
1710814994769,78
1710814994777,73
1710814994784,66
1710814994792,63
1710814994800,63
1710814994807,73
1710814994815,85
1710814994823,93
1710814994830,105
1710814994838,105
1710814994846,73
1710814994853,44
1710814994861,46
1710814994869,58
1710814994876,53
1710814994884,49
1710814994892,46
1710814994899,53
1710814994907,95
1710814994915,206
1710814994921,439
1710814994929,689
1710814994937,652
1710814994945,164
1710814994953,-350
1710814994961,-326
1710814994969,-61
1710814994976,-44
1710814994984,-58
1710814994992,26
1710814994999,44
1710814995007,29
1710814995015,51
1710814995022,46
1710814995030,39
1710814995038,61
1710814995045,78
1710814995053,78
1710814995061,83
1710814995068,95
1710814995076,105
1710814995084,115
1710814995091,130
1710814995099,134
1710814995107,132
1710814995113,149
1710814995121,166
1710814995129,176
1710814995137,186
1710814995145,206
1710814995153,220
1710814995160,215
1710814995168,203
1710814995176,198
1710814995183,186
1710814995191,154
1710814995199,127
1710814995206,107
1710814995214,90
1710814995222,73
1710814995230,49
1710814995237,36
1710814995245,56
1710814995253,73
1710814995260,61
1710814995268,66
1710814995276,93
1710814995283,98
1710814995291,80
1710814995299,90
1710814995305,110
1710814995313,107
1710814995321,110
1710814995329,125
1710814995337,134
1710814995345,134
1710814995352,127
1710814995360,120
1710814995368,110
1710814995375,105
1710814995383,112
1710814995391,110
1710814995398,105
1710814995406,112
1710814995414,120
1710814995421,117
1710814995429,117
1710814995437,122
1710814995444,117
1710814995452,110
1710814995460,107
1710814995467,105
1710814995475,105
1710814995483,122
1710814995489,137
1710814995497,142
1710814995505,152
1710814995513,154
1710814995521,134
1710814995529,120
1710814995537,122
1710814995544,142
1710814995552,164
1710814995560,161
1710814995567,139
1710814995575,144
1710814995583,213
1710814995590,382
1710814995598,647
1710814995606,817
1710814995613,586
1710814995621,-2
1710814995629,-318
1710814995636,-107
1710814995644,58
1710814995652,7
1710814995659,44
1710814995667,98
1710814995675,68
1710814995681,66
1710814995689,93
1710814995697,85
1710814995705,71
1710814995713,90
1710814995721,112
1710814995728,115
1710814995736,110
1710814995744,112
1710814995751,132
1710814995759,157
1710814995767,169
1710814995774,174
1710814995782,181
1710814995790,188
1710814995797,208
1710814995805,235
1710814995813,233
1710814995820,223
1710814995828,238
1710814995836,233
1710814995843,196
1710814995851,184
1710814995859,184
1710814995867,159
1710814995873,117
1710814995881,73
1710814995889,41
1710814995897,31
1710814995905,24
1710814995913,7
1710814995920,-7
1710814995928,2
1710814995936,22
1710814995943,39
1710814995951,61
1710814995959,80
1710814995966,93
1710814995974,88
1710814995982,76
1710814995989,85
1710814995997,107
1710814996005,117
1710814996012,117
1710814996020,120
1710814996028,120
1710814996035,120
1710814996043,117
1710814996051,105
1710814996057,100
1710814996065,110
1710814996073,112
1710814996081,110
1710814996089,107
1710814996097,90
1710814996104,93
1710814996112,110
1710814996120,93
1710814996127,73
1710814996135,80
1710814996143,78
1710814996151,68
1710814996158,73
1710814996166,83
1710814996174,93
1710814996181,107
1710814996189,107
1710814996197,95
1710814996204,95
1710814996212,93
1710814996220,68
1710814996227,66
1710814996235,95
1710814996243,100
1710814996249,80
1710814996257,85
1710814996265,120
1710814996273,223
1710814996281,473
1710814996289,748
1710814996296,718
1710814996304,213
1710814996312,-321
1710814996319,-296
1710814996327,-53
1710814996335,-58
1710814996342,-63
1710814996350,34
1710814996358,51
1710814996365,24
1710814996373,29
1710814996381,44
1710814996388,56
1710814996396,73
1710814996404,85
1710814996412,95
1710814996419,103
1710814996427,115
1710814996435,130
1710814996441,137
1710814996449,152
1710814996457,166
1710814996465,171
1710814996473,184
1710814996481,208
1710814996488,225
1710814996496,230
1710814996504,242
1710814996511,255
1710814996519,250
1710814996527,255
1710814996534,272
1710814996542,267
1710814996550,247
1710814996557,213
1710814996565,174
1710814996573,144
1710814996580,117
1710814996588,98
1710814996596,88
1710814996603,78
1710814996611,71
1710814996619,66
1710814996625,71
1710814996633,76
1710814996641,71
1710814996649,71
1710814996657,71
1710814996665,68
1710814996672,68
1710814996680,85
1710814996688,95
1710814996696,93
1710814996703,93
1710814996711,98
1710814996719,100
1710814996726,103
1710814996734,105
1710814996742,105
1710814996749,100
1710814996757,90
1710814996765,88
1710814996772,98
1710814996780,105
1710814996788,103
1710814996795,98
1710814996803,98
1710814996811,98
1710814996817,100
1710814996825,95
1710814996833,85
1710814996841,83
1710814996849,93
1710814996857,107
1710814996864,117
1710814996872,127
1710814996880,120
1710814996887,83
1710814996895,61
1710814996903,66
1710814996910,58
1710814996918,51
1710814996926,61
1710814996933,61
1710814996941,61
1710814996949,110
1710814996956,252
1710814996964,500
1710814996972,714
1710814996979,569
1710814996987,-4
1710814996995,-424
1710814997003,-264
1710814997009,-39
1710814997017,-68
1710814997025,-53
1710814997033,14
1710814997041,7
1710814997049,0
1710814997056,24
1710814997064,26
1710814997072,22
1710814997079,26
1710814997087,31
1710814997095,34
1710814997102,44
1710814997110,58
1710814997118,58
1710814997125,58
1710814997133,71
1710814997141,98
1710814997148,122
1710814997156,130
1710814997164,139
1710814997171,152
1710814997179,149
1710814997187,159
1710814997193,186
1710814997201,193
1710814997209,176
1710814997217,164
1710814997225,157
1710814997233,132
1710814997240,93
1710814997248,63
1710814997256,46
1710814997263,19
1710814997271,0
1710814997279,-9
1710814997287,-14
1710814997294,-22
1710814997302,-31
1710814997310,-36
1710814997317,-31
1710814997325,-26
1710814997333,-26
1710814997340,-29
1710814997348,-36
1710814997356,-49
1710814997363,-51
1710814997371,-44
1710814997379,-46
1710814997385,-53
1710814997393,-56
1710814997401,-53
1710814997409,-53
1710814997417,-66
1710814997425,-73
1710814997432,-68
1710814997440,-76
1710814997448,-88
1710814997455,-85
1710814997463,-78
1710814997471,-78
1710814997478,-83
1710814997486,-88
1710814997494,-93
1710814997501,-90
1710814997509,-85
1710814997517,-76
1710814997524,-51
1710814997532,-34
1710814997540,-51
1710814997547,-83
1710814997555,-98
1710814997563,-93
1710814997571,-85
1710814997577,-85
1710814997585,-85
1710814997593,-83
1710814997601,-80
1710814997609,-56
1710814997617,39
1710814997624,242
1710814997632,495
1710814997640,561
1710814997647,203
1710814997655,-341
1710814997663,-451
1710814997670,-193
1710814997678,-134
1710814997686,-171
1710814997693,-66
1710814997701,-17
1710814997709,-56
1710814997716,-44
1710814997724,-29
1710814997732,-41
1710814997739,-26
1710814997747,-17
1710814997755,-26
1710814997761,-9
1710814997769,14
1710814997777,24
1710814997785,36
1710814997793,51
1710814997801,71
1710814997808,88
1710814997816,98
1710814997824,115
1710814997831,127
1710814997839,132
1710814997847,149
1710814997854,142
1710814997862,100
1710814997870,93
1710814997878,98
1710814997885,63
1710814997893,24
1710814997901,4
1710814997908,-12
1710814997916,-14
1710814997924,-9
1710814997931,-29
1710814997939,-49
1710814997947,-34
1710814997953,-26
1710814997961,-41
1710814997969,-29
1710814997977,-4
1710814997985,-7
1710814997993,-19
1710814998000,-19
1710814998008,-2
1710814998016,26
1710814998023,29
1710814998031,19
1710814998039,36
1710814998046,63
1710814998054,71
1710814998062,73
1710814998069,78
1710814998077,80
1710814998085,63
1710814998092,46
1710814998100,46
1710814998108,53
1710814998115,46
1710814998123,46
1710814998131,56
1710814998137,41
1710814998145,19
1710814998153,19
1710814998161,46
1710814998169,80
1710814998177,68
1710814998184,39
1710814998192,26
1710814998200,7
1710814998208,-2
1710814998215,9
1710814998223,17
1710814998231,17
1710814998238,12
1710814998246,26
1710814998254,122
1710814998261,343
1710814998269,633
1710814998277,728
1710814998284,372
1710814998292,-230
1710814998300,-407
1710814998307,-88
1710814998315,19
1710814998323,-88
1710814998329,-19
1710814998337,58
1710814998345,19
1710814998353,2
1710814998361,61
1710814998369,85
1710814998376,61
1710814998384,66
1710814998392,63
1710814998399,66
1710814998407,115
1710814998415,142
1710814998422,132
1710814998430,142
1710814998438,149
1710814998445,134
1710814998453,154
1710814998461,196
1710814998468,181
1710814998476,164
1710814998484,198
1710814998491,215
1710814998499,208
1710814998507,171
1710814998515,125
1710814998521,134
1710814998529,130
1710814998537,63
1710814998545,24
1710814998553,31
1710814998561,24
1710814998568,14
1710814998576,-2
1710814998584,-24
1710814998591,4
1710814998599,22
1710814998607,-39
1710814998614,-51
1710814998622,4
1710814998630,12
1710814998637,-4
1710814998645,4
1710814998653,2
1710814998660,-2
1710814998668,4
1710814998676,-2
1710814998683,4
1710814998691,36
1710814998699,49
1710814998705,24
1710814998713,7
1710814998721,26
1710814998729,26
1710814998737,9
1710814998745,24
1710814998752,51
1710814998760,26
1710814998768,-19
1710814998775,0
1710814998783,24
1710814998791,24
1710814998799,66
1710814998806,95
1710814998814,68
1710814998822,24
1710814998829,2
1710814998837,12
1710814998845,41
1710814998852,44
1710814998860,44
1710814998868,61
1710814998875,68
1710814998883,120
1710814998891,279
1710814998897,549
1710814998905,767
1710814998913,606
1710814998921,22
1710814998929,-390
1710814998937,-203
1710814998944,44
1710814998952,-24
1710814998960,-44
1710814998967,61
1710814998975,66
1710814998983,29
1710814998990,53
1710814998998,76
1710814999006,68
1710814999013,80
1710814999021,98
1710814999029,85
1710814999036,83
1710814999044,110
1710814999052,134
1710814999059,147
1710814999067,152
1710814999075,147
1710814999081,147
1710814999089,154
1710814999097,147
1710814999105,137
1710814999113,142
1710814999121,139
1710814999129,120
1710814999136,105
1710814999144,98
1710814999152,78
1710814999159,53
1710814999167,39
1710814999175,31
1710814999182,19
1710814999190,4
1710814999198,0
1710814999205,-4
1710814999213,-9
1710814999221,-14
1710814999228,-14
1710814999236,-9
1710814999244,0
1710814999251,4
1710814999259,7
1710814999267,19
1710814999273,31
1710814999281,29
1710814999289,31
1710814999297,44
1710814999305,61
1710814999313,78
1710814999320,80
1710814999328,73
1710814999336,71
1710814999343,76
1710814999351,80
1710814999359,80
1710814999366,80
1710814999374,71
1710814999382,71
1710814999390,76
1710814999397,76
1710814999405,76
1710814999413,76
1710814999420,61
1710814999428,44
1710814999436,49
1710814999443,73
1710814999451,100
1710814999459,105
1710814999465,105
1710814999473,93
1710814999481,68
1710814999489,58
1710814999497,73
1710814999505,88
1710814999512,88
1710814999520,78
1710814999528,88
1710814999535,142
1710814999543,277
1710814999551,559
1710814999558,836
1710814999566,760
1710814999574,213
1710814999581,-314
1710814999589,-242
1710814999597,61
1710814999604,56
1710814999612,7
1710814999620,83
1710814999627,85
1710814999635,49
1710814999643,90
1710814999649,125
1710814999657,112
1710814999665,110
1710814999673,132
1710814999681,152
1710814999689,166
1710814999697,174
1710814999704,171
1710814999712,184
1710814999720,208
1710814999727,215
1710814999735,220
1710814999743,225
1710814999750,218
1710814999758,225
1710814999766,242
1710814999773,230
1710814999781,213
1710814999789,208
1710814999796,186
1710814999804,174
1710814999812,166
1710814999819,127
1710814999827,100
1710814999835,93
1710814999841,76
1710814999849,58
1710814999857,39
1710814999865,24
1710814999873,19
1710814999881,7
1710814999888,0
1710814999896,14
1710814999904,24
1710814999911,19
1710814999919,17
1710814999927,29
1710814999934,39
1710814999942,41
1710814999950,53
1710814999957,66
1710814999965,73
1710814999973,71
1710814999980,63
1710814999988,68
1710814999996,80
1710815000004,85
1710815000011,90
1710815000019,90
1710815000027,88
1710815000033,90
1710815000041,90
1710815000049,80
1710815000057,85
1710815000065,93
1710815000073,93
1710815000080,90
1710815000088,80
1710815000096,83
1710815000103,95
1710815000111,103
1710815000119,125
1710815000126,139
1710815000134,117
1710815000142,88
1710815000149,73
1710815000157,80
1710815000165,105
1710815000172,120
1710815000180,117
1710815000188,120
1710815000195,142
1710815000203,213
1710815000211,407
1710815000217,691
1710815000225,831
1710815000233,529
1710815000241,-90
1710815000249,-355
1710815000257,-105
1710815000264,44
1710815000272,7
1710815000280,71
1710815000288,122
1710815000295,98
1710815000303,110
1710815000311,134
1710815000318,132
1710815000326,142
1710815000334,154
1710815000341,159
1710815000349,164
1710815000357,164
1710815000364,166
1710815000372,174
1710815000380,171
1710815000387,169
1710815000395,176
1710815000403,193
1710815000409,215
1710815000417,238
1710815000425,247
1710815000433,252
1710815000441,252
1710815000449,255
1710815000456,250
1710815000464,238
1710815000472,218
1710815000479,196
1710815000487,169
1710815000495,147
1710815000502,117
1710815000510,85
1710815000518,68
1710815000525,66
1710815000533,51
1710815000541,36
1710815000548,41
1710815000556,46
1710815000564,46
1710815000571,51
1710815000579,58
1710815000587,68
1710815000595,68
1710815000601,66
1710815000609,76
1710815000617,88
1710815000625,85
1710815000633,80
1710815000641,83
1710815000648,83
1710815000656,85
1710815000664,90
1710815000671,93
1710815000679,93
1710815000687,85
1710815000694,73
1710815000702,73
1710815000710,83
1710815000717,88
1710815000725,90
1710815000733,95
1710815000740,95
1710815000748,90
1710815000756,95
1710815000763,103
1710815000771,105
1710815000779,105
1710815000785,122
1710815000793,159
1710815000801,179
1710815000809,159
1710815000817,134
1710815000825,125
1710815000832,112
1710815000840,112
1710815000848,125
1710815000855,127
1710815000863,117
1710815000871,120
1710815000879,159
1710815000886,294
1710815000894,547
1710815000902,790
1710815000909,740
1710815000917,213
1710815000925,-318
1710815000932,-245
1710815000940,36
1710815000948,26
1710815000955,9
1710815000963,88
1710815000971,98
1710815000977,88
1710815000985,107
1710815000993,112
1710815001001,120
1710815001009,149
1710815001017,171
1710815001024,159
1710815001032,132
1710815001040,142
1710815001047,166
1710815001055,166
1710815001063,186
1710815001070,206
1710815001078,191
1710815001086,186
1710815001093,193
1710815001101,179
1710815001109,176
1710815001116,196
1710815001124,203
1710815001132,196
1710815001139,179
1710815001147,161
1710815001155,149
1710815001161,130
1710815001169,100
1710815001177,66
1710815001185,39
1710815001193,29
1710815001201,26
1710815001209,19
1710815001216,0
1710815001224,-7
1710815001232,4
1710815001239,9
1710815001247,-14
1710815001255,-31
1710815001262,0
1710815001270,29
1710815001278,12
1710815001285,2
1710815001293,14
1710815001301,19
1710815001308,24
1710815001316,26
1710815001324,29
1710815001331,39
1710815001339,39
1710815001347,29
1710815001353,22
1710815001361,22
1710815001369,29
1710815001377,29
1710815001385,22
1710815001393,29
1710815001400,44
1710815001408,29
1710815001416,0
1710815001423,9
1710815001431,34
1710815001439,24
1710815001446,26
1710815001454,44
1710815001462,49
1710815001470,56
1710815001477,63
1710815001485,63
1710815001493,49
1710815001500,26
1710815001508,24
1710815001516,49
1710815001523,61
1710815001531,56
1710815001539,68
1710815001545,90
1710815001553,103
1710815001561,144
1710815001569,289
1710815001577,554
1710815001585,790
1710815001592,674
1710815001600,110
1710815001608,-363
1710815001615,-240
1710815001623,19
1710815001631,2
1710815001638,12
1710815001646,103
1710815001654,78
1710815001661,56
1710815001669,105
1710815001677,115
1710815001684,93
1710815001692,107
1710815001700,134
1710815001707,137
1710815001715,134
1710815001723,144
1710815001729,157
1710815001737,157
1710815001745,154
1710815001753,154
1710815001761,152
1710815001769,166
1710815001777,179
1710815001784,181
1710815001792,198
1710815001800,215
1710815001807,225
1710815001815,211
1710815001823,188
1710815001830,181
1710815001838,164
1710815001846,130
1710815001853,100
1710815001861,88
1710815001869,78
1710815001876,58
1710815001884,39
1710815001892,36
1710815001899,39
1710815001907,24
1710815001915,14
1710815001921,26
1710815001929,39
1710815001937,39
1710815001945,36
1710815001953,26
1710815001961,26
1710815001968,39
1710815001976,41
1710815001984,39
1710815001991,53
1710815001999,58
1710815002007,49
1710815002014,46
1710815002022,39
1710815002030,39
1710815002037,51
1710815002045,61
1710815002053,61
1710815002060,68
1710815002068,68
1710815002076,58
1710815002084,63
1710815002091,73
1710815002099,73
1710815002107,58
1710815002113,34
1710815002121,9
1710815002129,-12
1710815002137,-14
1710815002145,44
1710815002153,147
1710815002160,193
1710815002168,144
1710815002176,90
1710815002183,88
1710815002191,103
1710815002199,125
1710815002206,152
1710815002214,166
1710815002222,159
1710815002229,157
1710815002237,174
1710815002245,169
1710815002252,215
1710815002260,451
1710815002268,745
1710815002275,819
1710815002283,461
1710815002291,-120
1710815002297,-260
1710815002305,26
1710815002313,103
1710815002321,58
1710815002329,159
1710815002337,193
1710815002344,127
1710815002352,134
1710815002360,176
1710815002368,161
1710815002375,144
1710815002383,164
1710815002391,174
1710815002398,159
1710815002406,157
1710815002414,169
1710815002421,166
1710815002429,164
1710815002437,174
1710815002444,184
1710815002452,191
1710815002460,211
1710815002467,220
1710815002475,223
1710815002483,230
1710815002489,228
1710815002497,220
1710815002505,213
1710815002513,203
1710815002521,191
1710815002529,176
1710815002536,152
1710815002544,117
1710815002552,85
1710815002559,68
1710815002567,44
1710815002575,19
1710815002582,17
1710815002590,22
1710815002598,17
1710815002605,12
1710815002613,7
1710815002621,4
1710815002628,14
1710815002636,22
1710815002644,22
