time,ppg
1710812342044,2011629
1710812342083,2006563
1710812342124,2003854
1710812342164,2002360
1710812342204,2001978
1710812342245,2001712
1710812342284,2001302
1710812342324,2000057
1710812342364,1999227
1710812342404,1999309
1710812342445,2000032
1710812342484,2001251
1710812342525,2002831
1710812342565,2004520
1710812342605,2006350
1710812342646,2008239
1710812342685,2010162
1710812342725,2012146
1710812342765,2011382
1710812342805,2006681
1710812342846,2001418
1710812342886,1997900
1710812342926,1996288
1710812342966,1995894
1710812343006,1996322
1710812343047,1996714
1710812343086,1996571
1710812343127,1996019
1710812343167,1996081
1710812343207,1996778
1710812343248,1998068
1710812343287,1999730
1710812343327,2001651
1710812343367,2003736
1710812343407,2006087
1710812343448,2008203
1710812343488,2010415
1710812343528,2012715
1710812343568,2014027
1710812343608,2010970
1710812343649,2006503
1710812343688,2003477
1710812343728,2002323
1710812343768,2002208
1710812343809,2003391
1710812343850,2004496
1710812343889,2004947
1710812343929,2005025
1710812343969,2005324
1710812344009,2006291
1710812344050,2007807
1710812344089,2009657
1710812344129,2011843
1710812344169,2014288
1710812344209,2016516
1710812344250,2018908
1710812344289,2021284
1710812344330,2023687
1710812344370,2026108
1710812344410,2025304
1710812344451,2021761
1710812344490,2018533
1710812344530,2017135
1710812344570,2017369
1710812344610,2018656
1710812344651,2020259
1710812344691,2021379
1710812344730,2021822
1710812344771,2022323
1710812344811,2023047
1710812344852,2024359
1710812344891,2026124
1710812344931,2028195
1710812344971,2030251
1710812345011,2032645
1710812345052,2034921
1710812345091,2037057
1710812345131,2039437
1710812345172,2041502
1710812345212,2040737
1710812345252,2037743
1710812345292,2035274
1710812345332,2034257
1710812345372,2034665
1710812345412,2036303
1710812345453,2038131
1710812345493,2039557
1710812345533,2040174
1710812345573,2040678
1710812345613,2041530
1710812345654,2042802
1710812345693,2044468
1710812345733,2046394
1710812345773,2048407
1710812345813,2050587
1710812345854,2052647
1710812345894,2054791
1710812345934,2056993
1710812345974,2057082
1710812346014,2054631
1710812346054,2051970
1710812346094,2050723
1710812346134,2050973
1710812346174,2052301
1710812346214,2054142
1710812346255,2055585
1710812346295,2056332
1710812346335,2056979
1710812346375,2057553
1710812346415,2058601
1710812346456,2060062
1710812346495,2061761
1710812346535,2063833
1710812346575,2065492
1710812346616,2067503
1710812346656,2069578
1710812346696,2071321
1710812346736,2070355
1710812346776,2066995
1710812346816,2064057
1710812346857,2062427
1710812346896,2062326
1710812346936,2063403
1710812346977,2064772
1710812347016,2065733
1710812347057,2065949
1710812347097,2065911
1710812347137,2066213
1710812347177,2066928
1710812347217,2068019
1710812347258,2069342
1710812347297,2071145
1710812347338,2072640
1710812347378,2074288
1710812347418,2075973
1710812347459,2076875
1710812347498,2073845
1710812347538,2069461
1710812347578,2065898
1710812347618,2064185
1710812347659,2063592
1710812347699,2064209
1710812347739,2065090
1710812347779,2065185
1710812347819,2064767
1710812347860,2064282
1710812347899,2064189
1710812347939,2064621
1710812347979,2065460
1710812348020,2066774
1710812348060,2068084
1710812348100,2069418
1710812348140,2070949
1710812348180,2072339
1710812348220,2069890
1710812348261,2064760
1710812348300,2059748
1710812348340,2056533
1710812348381,2054940
1710812348421,2054510
1710812348462,2054976
1710812348501,2054956
1710812348541,2054209
1710812348581,2053250
1710812348621,2052565
1710812348662,2052651
1710812348702,2053197
1710812348744,2054156
1710812348782,2055475
1710812348822,2056747
1710812348863,2058171
1710812348902,2059594
1710812348942,2059997
1710812348983,2055516
1710812349023,2049261
1710812349063,2043922
1710812349103,2040826
1710812349143,2039191
1710812349183,2038804
1710812349223,2038826
1710812349264,2038373
1710812349303,2037133
1710812349344,2036058
1710812349384,2035519
1710812349424,2035838
1710812349465,2036596
1710812349504,2037812
1710812349544,2039172
1710812349584,2040610
1710812349625,2042127
1710812349665,2043736
1710812349705,2045278
1710812349745,2045529
1710812349785,2040555
1710812349825,2033986
1710812349866,2028721
1710812349905,2025841
1710812349945,2024382
1710812349986,2024179
1710812350026,2024180
1710812350066,2023629
1710812350106,2022691
1710812350146,2021822
1710812350186,2021495
1710812350226,2021967
1710812350267,2023124
1710812350307,2024430
1710812350347,2026156
1710812350387,2027806
1710812350427,2029666
1710812350468,2031564
1710812350507,2033314
1710812350547,2036418
1710812350587,2032593
1710812350627,2026813
1710812350668,2022170
1710812350708,2019721
1710812350748,2018893
1710812350788,2018956
1710812350828,2019668
1710812350869,2019811
1710812350908,2019273
1710812350951,2018891
1710812350988,2019014
1710812351028,2019894
1710812351069,2021299
1710812351108,2023047
1710812351148,2024889
1710812351189,2027028
1710812351229,2028967
1710812351270,2031022
1710812351309,2033044
1710812351349,2035264
1710812351389,2037395
1710812351429,2037386
1710812351470,2033301
1710812351509,2028576
1710812351550,2025650
1710812351589,2024629
1710812351630,2024950
1710812351671,2026039
1710812351710,2027051
1710812351750,2027411
1710812351790,2027310
1710812351830,2027403
1710812351871,2028223
1710812351910,2029646
1710812351950,2031300
1710812351991,2033206
1710812352031,2035477
1710812352071,2037642
1710812352111,2039852
1710812352151,2042014
1710812352191,2044152
1710812352231,2046515
1710812352272,2048583
1710812352311,2047099
1710812352351,2043148
1710812352391,2039851
1710812352431,2038470
1710812352472,2038555
1710812352512,2039829
1710812352552,2041564
1710812352592,2042674
1710812352632,2043073
1710812352673,2043433
1710812352712,2043988
1710812352752,2045118
1710812352792,2046661
1710812352832,2048540
1710812352873,2050593
1710812352913,2052774
1710812352953,2055007
1710812352993,2057105
1710812353033,2059207
1710812353074,2061505
1710812353113,2063855
1710812353153,2064342
1710812353193,2061621
1710812353233,2058327
1710812353274,2056405
1710812353314,2056171
1710812353354,2057117
1710812353394,2058908
1710812353434,2060507
1710812353475,2061583
1710812353514,2061970
1710812353554,2062390
1710812353594,2063368
1710812353634,2064593
1710812353675,2066232
1710812353715,2068055
1710812353755,2070027
1710812353795,2072039
1710812353835,2074042
1710812353876,2076032
1710812353915,2077957
1710812353955,2080038
1710812353995,2079618
1710812354036,2076728
1710812354076,2074088
1710812354116,2072531
1710812354156,2072525
1710812354196,2073685
1710812354236,2075430
1710812354277,2076889
1710812354317,2077555
1710812354356,2077966
1710812354397,2078279
1710812354437,2079162
1710812354478,2080309
1710812354517,2081798
1710812354557,2083477
1710812354597,2085279
1710812354637,2087019
1710812354678,2088840
1710812354718,2090689
1710812354758,2091581
1710812354798,2089526
1710812354838,2086209
1710812354879,2083504
1710812354918,2082302
1710812354958,2082551
1710812354999,2083767
1710812355039,2085201
1710812355080,2086005
1710812355119,2086230
1710812355159,2086293
1710812355199,2086522
1710812355239,2087141
1710812355280,2088232
1710812355320,2089502
1710812355360,2091099
1710812355400,2092617
1710812355440,2094097
1710812355481,2095601
1710812355521,2095318
1710812355561,2091734
1710812355601,2087601
1710812355641,2084530
1710812355682,2083001
1710812355721,2082892
1710812355761,2083717
1710812355801,2084480
1710812355841,2084516
1710812355882,2083796
1710812355922,2083179
1710812355962,2082958
1710812356002,2083240
1710812356042,2083882
1710812356083,2084817
1710812356123,2085913
1710812356163,2087161
1710812356203,2088278
1710812356243,2088477
1710812356284,2084223
1710812356323,2078684
1710812356363,2073832
1710812356403,2071039
1710812356444,2069757
1710812356485,2069595
1710812356524,2069780
1710812356564,2069456
1710812356604,2068252
1710812356644,2066967
1710812356685,2066120
1710812356725,2065901
1710812356765,2066327
1710812356805,2067112
1710812356845,2068057
1710812356886,2069083
1710812356925,2070312
1710812356966,2070758
1710812357006,2066853
1710812357046,2060332
1710812357087,2054552
1710812357126,2050866
1710812357166,2048836
1710812357206,2048132
1710812357246,2048150
1710812357287,2047416
1710812357326,2046147
1710812357366,2044329
1710812357407,2043352
1710812357447,2043021
1710812357487,2043468
1710812357527,2044062
1710812357567,2045177
1710812357607,2046319
1710812357647,2047564
1710812357688,2048842
1710812357727,2047446
1710812357767,2041134
1710812357807,2034239
1710812357847,2029219
1710812357888,2026145
1710812357928,2024692
1710812357968,2024297
1710812358008,2024041
1710812358048,2023076
1710812358089,2021443
1710812358128,2020209
1710812358168,2019859
1710812358208,2020158
1710812358248,2021040
1710812358289,2021984
1710812358329,2023689
1710812358369,2025075
1710812358409,2026492
1710812358449,2028395
1710812358490,2029490
1710812358529,2025748
1710812358569,2018907
1710812358609,2012741
1710812358649,2008800
1710812358690,2006650
1710812358730,2005604
1710812358770,2005573
1710812358810,2005181
1710812358850,2004072
1710812358891,2003084
1710812358930,2002515
1710812358970,2002732
1710812359010,2003550
1710812359050,2004836
1710812359091,2006454
1710812359131,2008254
1710812359171,2010141
1710812359211,2011914
1710812359251,2013901
1710812359292,2015921
1710812359331,2017827
1710812359371,2015156
1710812359411,2009138
1710812359451,2003594
1710812359492,2000029
1710812359532,1998306
1710812359572,1997823
1710812359612,1998162
1710812359652,1998212
1710812359693,1997688
1710812359732,1997089
1710812359772,1996915
1710812359812,1997425
1710812359853,1998636
1710812359893,2000291
1710812359933,2002146
1710812359973,2004253
1710812360013,2006512
1710812360053,2008735
1710812360094,2010825
1710812360133,2013063
1710812360173,2015551
1710812360214,2017576
1710812360254,2015456
1710812360294,2010154
1710812360334,2005417
1710812360374,2002694
1710812360414,2001743
1710812360454,2001853
1710812360495,2002644
1710812360534,2003350
1710812360575,2003161
1710812360615,2002862
1710812360655,2003118
1710812360696,2004006
1710812360735,2005393
1710812360775,2007477
1710812360815,2009503
1710812360855,2011744
1710812360896,2013964
1710812360936,2016372
1710812360976,2018882
1710812361016,2021119
1710812361056,2023688
1710812361097,2026426
1710812361136,2027790
1710812361176,2024778
1710812361216,2020370
1710812361257,2017175
1710812361297,2015963
1710812361337,2015996
1710812361377,2017272
1710812361417,2018506
1710812361457,2019380
1710812361498,2019477
1710812361538,2019693
1710812361578,2020530
1710812361618,2021722
1710812361658,2023585
1710812361699,2025610
1710812361738,2027838
1710812361778,2030159
1710812361818,2032595
1710812361858,2034759
1710812361899,2037121
1710812361939,2039501
1710812361979,2041915
1710812362019,2044244
1710812362059,2043099
1710812362100,2039522
1710812362139,2036415
1710812362179,2034847
1710812362220,2035005
1710812362260,2036267
1710812362301,2038121
1710812362340,2039401
1710812362380,2040073
1710812362420,2040452
1710812362461,2041137
1710812362502,2042241
1710812362541,2043964
1710812362581,2045856
1710812362621,2048018
1710812362661,2050158
1710812362702,2052378
1710812362742,2054693
1710812362782,2056951
1710812362822,2058867
1710812362862,2061199
1710812362903,2063398
1710812362942,2063102
1710812362982,2060227
1710812363022,2057239
1710812363063,2055566
1710812363103,2055675
1710812363143,2056707
1710812363183,2058456
1710812363223,2060060
1710812363263,2060913
1710812363304,2061350
1710812363344,2061810
1710812363384,2062521
1710812363424,2063943
1710812363464,2065630
1710812363505,2067539
1710812363544,2069412
1710812363584,2071447
1710812363625,2075307
1710812363665,2077337
1710812363705,2079227
1710812363745,2078654
1710812363785,2076001
1710812363825,2073284
1710812363865,2071841
1710812363906,2071936
1710812363945,2073104
1710812363985,2074825
1710812364025,2076411
1710812364065,2077258
1710812364106,2077698
1710812364145,2078142
1710812364186,2078975
1710812364226,2080184
1710812364266,2081630
1710812364307,2083454
1710812364346,2085171
1710812364386,2086901
1710812364426,2088796
1710812364466,2090663
1710812364507,2091250
1710812364547,2088653
1710812364586,2085330
1710812364627,2082825
1710812364667,2081830
1710812364707,2082137
1710812364747,2083497
1710812364787,2084854
1710812364827,2085593
1710812364867,2085763
1710812364908,2085716
1710812364947,2086010
1710812364987,2086561
1710812365028,2087501
1710812365068,2089010
1710812365108,2090340
1710812365148,2091853
1710812365188,2093317
1710812365228,2094628
1710812365268,2092464
1710812365309,2088126
1710812365348,2083834
1710812365389,2081208
1710812365429,2080123
1710812365469,2080350
1710812365510,2081140
1710812365549,2081715
1710812365589,2081416
1710812365629,2080529
1710812365669,2080086
1710812365710,2080027
1710812365750,2080381
1710812365790,2081181
1710812365830,2082273
1710812365870,2083291
1710812365911,2084590
1710812365950,2085798
1710812365990,2083123
1710812366030,2077624
1710812366070,2071824
1710812366111,2067941
1710812366151,2065882
1710812366191,2065383
1710812366231,2065533
1710812366271,2065548
1710812366312,2064733
1710812366351,2063306
1710812366391,2062088
1710812366431,2061526
1710812366472,2061649
1710812366512,2062285
1710812366552,2063221
1710812366592,2064064
1710812366632,2065233
1710812366672,2066281
1710812366713,2063996
1710812366752,2057643
1710812366793,2050770
1710812366833,2045822
1710812366873,2043009
1710812366914,2041857
1710812366953,2041570
1710812366993,2041453
1710812367033,2040303
1710812367073,2038646
1710812367114,2037111
1710812367153,2036649
1710812367194,2036756
1710812367234,2037400
1710812367274,2038417
1710812367315,2039733
1710812367354,2041025
1710812367394,2042283
1710812367434,2043581
1710812367474,2041041
1710812367515,2033983
1710812367555,2026411
1710812367595,2021098
1710812367635,2017995
1710812367675,2016077
1710812367716,2015615
1710812367755,2015296
1710812367795,2013817
1710812367836,2012163
1710812367876,2010654
1710812367917,2010196
1710812367956,2010369
1710812367996,2011229
1710812368036,2012416
1710812368076,2013868
1710812368117,2015444
1710812368156,2016980
1710812368196,2018708
1710812368237,2020427
1710812368277,2019344
1710812368317,2013104
1710812368357,2005837
1710812368397,2000498
1710812368437,1997500
1710812368477,1996138
1710812368518,1995754
1710812368557,1995689
1710812368598,1995197
1710812368638,1993786
1710812368678,1992920
1710812368719,1992821
1710812368758,1993439
1710812368798,1994732
1710812368838,1996455
1710812368879,1998432
1710812368919,2000378
1710812368959,2002334
1710812368999,2004449
1710812369039,2006532
1710812369079,2008987
1710812369120,2009394
1710812369160,2004638
1710812369200,1998317
1710812369240,1993687
1710812369280,1991393
1710812369321,1990538
1710812369360,1990824
1710812369400,1991425
1710812369441,1991498
1710812369481,1990906
1710812369521,1990359
1710812369561,1990838
1710812369601,1991845
1710812369641,1993291
1710812369681,1995348
1710812369722,1997611
1710812369762,1999789
1710812369802,2002259
1710812369842,2004520
1710812369882,2006940
1710812369923,2009501
1710812369962,2011494
1710812370002,2008884
1710812370043,2003481
1710812370083,1998901
1710812370124,1996576
1710812370163,1995978
1710812370203,1996696
1710812370243,1997830
1710812370283,1998530
1710812370324,1998432
1710812370363,1998392
1710812370404,1998721
1710812370444,1999748
1710812370484,2001497
1710812370524,2003408
1710812370564,2005594
1710812370604,2008048
1710812370644,2010374
1710812370684,2012794
1710812370725,2015174
1710812370764,2017804
1710812370804,2019892
1710812370844,2017948
1710812370885,2013594
1710812370926,2009817
1710812370965,2008202
1710812371005,2008161
1710812371045,2009464
1710812371085,2011198
1710812371126,2012441
1710812371165,2013052
1710812371205,2013260
1710812371245,2013941
1710812371286,2015175
1710812371326,2017006
1710812371366,2019153
1710812371406,2021487
1710812371446,2023956
1710812371486,2026467
1710812371527,2028845
1710812371566,2031301
1710812371606,2034014
1710812371647,2035906
1710812371687,2034020
1710812371727,2030295
1710812371767,2027438
1710812371807,2026312
1710812371847,2026862
1710812371887,2028516
1710812371928,2030399
1710812371967,2031864
1710812372007,2032632
1710812372047,2033038
1710812372087,2033922
1710812372128,2035085
1710812372168,2036775
1710812372208,2038893
1710812372248,2041110
1710812372288,2043356
1710812372329,2045661
1710812372368,2047788
1710812372408,2050133
1710812372448,2052149
1710812372489,2051121
1710812372529,2048024
1710812372569,2045437
1710812372609,2044304
1710812372649,2044649
1710812372689,2046317
1710812372730,2048253
1710812372769,2049680
1710812372809,2050465
1710812372849,2051003
1710812372889,2051693
1710812372930,2052751
1710812372970,2054176
1710812373010,2056031
1710812373050,2058038
1710812373090,2060033
1710812373131,2062097
1710812373170,2064221
1710812373210,2065822
1710812373250,2064192
1710812373291,2061097
1710812373332,2058294
1710812373371,2057030
1710812373411,2057444
1710812373451,2058663
1710812373491,2060306
1710812373532,2061343
1710812373571,2061782
1710812373611,2062081
1710812373652,2062358
1710812373692,2063234
1710812373732,2064403
1710812373772,2065919
1710812373812,2067506
1710812373852,2069136
1710812373892,2070986
1710812373933,2072462
1710812373972,2070489
1710812374013,2066444
1710812374053,2062724
1710812374093,2060466
1710812374133,2059790
1710812374173,2060481
1710812374213,2061606
1710812374253,2062151
1710812374293,2061933
1710812374334,2061485
1710812374373,2061248
1710812374414,2061480
1710812374454,2062284
1710812374494,2063429
1710812374535,2064678
1710812374574,2066150
1710812374614,2067659
1710812374654,2067888
1710812374694,2063832
1710812374735,2058420
1710812374775,2054031
1710812374815,2051451
1710812374855,2050694
1710812374895,2051090
1710812374936,2051545
1710812374975,2051328
1710812375016,2050294
1710812375056,2049377
1710812375096,2048964
1710812375137,2049077
1710812375176,2049844
1710812375216,2050881
1710812375256,2052173
1710812375296,2053369
1710812375337,2054847
1710812375377,2053151
1710812375417,2047200
1710812375457,2040433
1710812375497,2035834
1710812375538,2033146
1710812375577,2031980
1710812375617,2031627
1710812375657,2031488
1710812375697,2030510
1710812375738,2028851
1710812375778,2027671
1710812375818,2027254
1710812375858,2027559
1710812375898,2028325
1710812375939,2029631
1710812375978,2030881
1710812376018,2032248
1710812376058,2033775
1710812376099,2033841
1710812376139,2028567
1710812376179,2021074
1710812376219,2014659
1710812376259,2010880
1710812376299,2008673
1710812376340,2007919
1710812376379,2007274
1710812376420,2006536
1710812376460,2004907
1710812376500,2003379
1710812376541,2002709
1710812376580,2002835
1710812376620,2003569
1710812376660,2004837
1710812376700,2006253
1710812376741,2007814
1710812376781,2009559
1710812376821,2011268
1710812376861,2012881
1710812376901,2010686
1710812376942,2004346
1710812376981,1997565
1710812377021,1993039
1710812377062,1989338
1710812377101,1989253
1710812377142,1989085
1710812377182,1988096
1710812377222,1986989
1710812377262,1986315
1710812377302,1986487
1710812377343,1987439
1710812377382,1988892
1710812377422,1990538
1710812377462,1992499
1710812377502,1994383
1710812377543,1996433
1710812377582,1998595
1710812377623,2000878
1710812377663,2002002
1710812377703,1997884
1710812377744,1991919
1710812377783,1987026
1710812377823,1984536
1710812377863,1983544
1710812377903,1983921
1710812377944,1984512
1710812377984,1984477
1710812378024,1984015
1710812378064,1983588
1710812378104,1983926
1710812378145,1984820
1710812378184,1986472
1710812378224,1988324
1710812378264,1990510
1710812378304,1992740
1710812378345,1995165
1710812378385,1997440
1710812378425,1999808
1710812378465,2002523
1710812378505,2003730
1710812378545,2000421
1710812378585,1995629
1710812378625,1992060
1710812378665,1990584
1710812378705,1990745
1710812378746,1991935
1710812378785,1993298
1710812378825,1993947
1710812378866,1994210
1710812378906,1994361
1710812378947,1995224
1710812378986,1996705
1710812379026,1998661
1710812379066,2001023
1710812379106,2003409
1710812379147,2005951
1710812379186,2008640
1710812379227,2011227
1710812379267,2013750
1710812379307,2016356
1710812379348,2016789
1710812379387,2013801
1710812379427,2009910
1710812379467,2007864
1710812379507,2007567
1710812379548,2008603
1710812379588,2010441
1710812379628,2011968
1710812379668,2012967
1710812379708,2013309
1710812379749,2014143
1710812379788,2015379
1710812379828,2017287
1710812379868,2019384
1710812379908,2021808
1710812379949,2024305
1710812379989,2026992
1710812380029,2029535
1710812380069,2031933
1710812380109,2034595
1710812380150,2036732
1710812380189,2035258
1710812380229,2032037
1710812380269,2029240
1710812380310,2028223
1710812380350,2028731
1710812380390,2030367
1710812380430,2032189
1710812380470,2033603
1710812380510,2034262
1710812380551,2034765
1710812380590,2035418
1710812380630,2036965
1710812380671,2038665
1710812380710,2040618
1710812380751,2042843
1710812380791,2045130
1710812380831,2047402
1710812380871,2049604
1710812380911,2051869
1710812380952,2053259
1710812380991,2051345
1710812381032,2048377
1710812381072,2046178
1710812381112,2045588
1710812381153,2046294
1710812381192,2047976
1710812381232,2049807
1710812381272,2050971
1710812381312,2051695
1710812381353,2052232
1710812381393,2053061
1710812381433,2054330
1710812381473,2055903
1710812381513,2057880
1710812381554,2059845
1710812381593,2062019
1710812381633,2064096
1710812381673,2065896
1710812381713,2065226
1710812381754,2062070
1710812381794,2058946
1710812381834,2057297
1710812381874,2057041
1710812381914,2058156
1710812381955,2059854
1710812381994,2061086
1710812382034,2061500
1710812382075,2061641
1710812382115,2061955
1710812382155,2062677
1710812382195,2063822
1710812382235,2065258
1710812382275,2066879
1710812382315,2068618
1710812382356,2070327
1710812382396,2071173
1710812382436,2068330
1710812382476,2063729
1710812382516,2059838
1710812382557,2057672
1710812382596,2057188
1710812382636,2057910
1710812382676,2058798
1710812382717,2058838
1710812382757,2058219
1710812382797,2057493
1710812382837,2057256
1710812382877,2057607
1710812382917,2058444
1710812382958,2059598
1710812382997,2060918
1710812383037,2062320
1710812383078,2063501
1710812383118,2060610
1710812383158,2054926
1710812383198,2049408
1710812383238,2046012
1710812383278,2044156
1710812383318,2043845
1710812383359,2044233
1710812383399,2043996
1710812383439,2042912
1710812383479,2041444
1710812383519,2040555
1710812383560,2040622
1710812383599,2041210
1710812383639,2042109
1710812383680,2043287
1710812383720,2044563
1710812383761,2045895
1710812383800,2044422
1710812383840,2038078
1710812383880,2030947
1710812383920,2025627
1710812383961,2022782
1710812384000,2021156
1710812384041,2020927
1710812384080,2020546
1710812384121,2019351
1710812384161,2017728
1710812384201,2016340
1710812384241,2016016
1710812384281,2016352
1710812384321,2017252
1710812384362,2018591
1710812384401,2019889
1710812384441,2021372
1710812384481,2022847
1710812384522,2021942
1710812384562,2015418
1710812384602,2007765
1710812384642,2001922
1710812384682,1998486
1710812384722,1996772
1710812384763,1996162
1710812384802,1995601
1710812384842,1994642
1710812384882,1993021
1710812384922,1991895
1710812384963,1991602
1710812385003,1992187
1710812385043,1993315
1710812385083,1994855
1710812385123,1996537
1710812385163,1998231
1710812385203,2000178
1710812385243,2001967
1710812385283,2001544
1710812385323,1995936
1710812385364,1988964
1710812385403,1984078
1710812385443,1981345
1710812385484,1980222
1710812385524,1980225
1710812385565,1980331
1710812385604,1979698
1710812385644,1978726
1710812385684,1978303
1710812385724,1978549
1710812385765,1979524
1710812385804,1981154
1710812385845,1983087
1710812385885,1985178
1710812385925,1987262
1710812385966,1989447
1710812386005,1991661
1710812386045,1994103
1710812386085,1994075
1710812386125,1989256
1710812386166,1983633
1710812386205,1979973
1710812386245,1978568
1710812386286,1978434
1710812386326,1979330
1710812386366,1979876
1710812386406,1980008
1710812386446,1979662
1710812386486,1979923
1710812386526,1980889
1710812386567,1982480
1710812386606,1984518
1710812386646,1986676
1710812386687,1989038
1710812386727,1991554
1710812386768,1993940
1710812386807,1996484
1710812386847,1999020
1710812386887,2001105
1710812386927,1998894
1710812386968,1994393
1710812387008,1990897
1710812387048,1989608
1710812387088,1989852
1710812387128,1991407
1710812387169,1992967
1710812387208,1993798
1710812387248,1994258
1710812387288,1994516
1710812387328,1995543
1710812387369,1997264
1710812387409,1999353
1710812387449,2001738
1710812387489,2004080
1710812387529,2006819
1710812387570,2009472
1710812387609,2012033
1710812387649,2014669
1710812387689,2017352
1710812387729,2018012
1710812387770,2015112
1710812387810,2011680
1710812387850,2009742
1710812387890,2009853
1710812387930,2011243
1710812387971,2013228
1710812388010,2014923
1710812388050,2015858
1710812388090,2016347
1710812388131,2017218
1710812388171,2018563
1710812388211,2020376
1710812388251,2022487
1710812388291,2025031
1710812388331,2027434
1710812388372,2029926
1710812388411,2032319
1710812388451,2034765
1710812388492,2037275
1710812388532,2038432
1710812388572,2036429
1710812388612,2033515
1710812388652,2031834
1710812388693,2031980
1710812388733,2033323
1710812388774,2035469
1710812388813,2037415
1710812388854,2038616
1710812388894,2039271
1710812388934,2040140
1710812388975,2041374
1710812389014,2043038
1710812389054,2045017
1710812389094,2047181
1710812389134,2049625
1710812389175,2051792
1710812389215,2054170
1710812389255,2056507
1710812389295,2057452
1710812389335,2055390
1710812389376,2052752
1710812389416,2050861
1710812389456,2050768
1710812389496,2051901
1710812389536,2053835
1710812389577,2055542
1710812389616,2056605
1710812389656,2057170
1710812389697,2057497
1710812389736,2058448
1710812389777,2059863
1710812389817,2061422
1710812389857,2063470
1710812389897,2065318
1710812389937,2067324
1710812389978,2069360
1710812390018,2070239
1710812390058,2067739
1710812390098,2063966
1710812390138,2061453
1710812390179,2060486
1710812390218,2060875
1710812390258,2062002
1710812390299,2063427
1710812390339,2064032
1710812390380,2064132
1710812390419,2064100
1710812390459,2064597
1710812390499,2066743
1710812390539,2068376
1710812390580,2069953
1710812390619,2071702
1710812390660,2073450
1710812390700,2073078
1710812390740,2069239
1710812390781,2064553
1710812390820,2061467
1710812390860,2060126
1710812390900,2060138
1710812390940,2061025
1710812390981,2061617
1710812391020,2061683
1710812391060,2061177
1710812391101,2060827
1710812391141,2061090
1710812391181,2061789
1710812391221,2063079
1710812391261,2064501
1710812391301,2066123
1710812391341,2067735
1710812391382,2069096
1710812391421,2066835
1710812391461,2061390
1710812391501,2055995
1710812391541,2052883
1710812391582,2051459
1710812391622,2051165
1710812391662,2051760
1710812391702,2052005
1710812391742,2051459
1710812391783,2050708
1710812391822,2050285
1710812391862,2050482
1710812391902,2051663
1710812391942,2052833
1710812391983,2054483
1710812392023,2055994
1710812392063,2057654
1710812392103,2059421
1710812392143,2058117
1710812392184,2052649
1710812392223,2046739
1710812392263,2042587
1710812392303,2040719
1710812392344,2040143
1710812392384,2040423
1710812392424,2040720
1710812392464,2040311
1710812392504,2039529
1710812392544,2039255
1710812392585,2039385
1710812392624,2040457
1710812392664,2041819
1710812392705,2043460
1710812392744,2045271
1710812392785,2047290
1710812392825,2049210
1710812392865,2051178
1710812392905,2050074
1710812392945,2045162
1710812392986,2039738
1710812393025,2036361
1710812393065,2034891
1710812393105,2034896
1710812393145,2035469
1710812393186,2035981
1710812393226,2035895
1710812393266,2035523
1710812393306,2035641
1710812393346,2036254
1710812393387,2037489
1710812393426,2039280
1710812393466,2041282
1710812393506,2043081
1710812393547,2045305
1710812393587,2047275
1710812393627,2049394
1710812393667,2050871
1710812393707,2048158
1710812393747,2043377
1710812393788,2039458
1710812393827,2037710
1710812393867,2037410
1710812393908,2038141
1710812393948,2039327
1710812393988,2040071
1710812394028,2040139
1710812394068,2040184
1710812394108,2040605
1710812394148,2041883
1710812394189,2043456
1710812394229,2045363
1710812394269,2047495
1710812394309,2049695
1710812394349,2051874
1710812394390,2054087
1710812394429,2056337
1710812394469,2058073
1710812394509,2056057
1710812394549,2052274
1710812394590,2049228
1710812394630,2048188
1710812394670,2048620
1710812394710,2050202
1710812394750,2051835
1710812394791,2052736
1710812394830,2053287
1710812394871,2053700
1710812394911,2054572
1710812394951,2055882
1710812394992,2057751
1710812395031,2059779
1710812395071,2062032
1710812395111,2064289
1710812395151,2066564
1710812395192,2068801
1710812395232,2071082
1710812395272,2072463
1710812395312,2070516
1710812395352,2067375
1710812395393,2065248
1710812395432,2064964
1710812395472,2065839
1710812395512,2067608
1710812395552,2069436
1710812395593,2070562
1710812395633,2071332
1710812395673,2071850
1710812395713,2072870
1710812395753,2074261
1710812395794,2076022
1710812395834,2078105
1710812395874,2080167
1710812395914,2082323
1710812395954,2084541
1710812395995,2086684
1710812396034,2088411
1710812396074,2087791
1710812396115,2085376
1710812396155,2083221
1710812396196,2082629
1710812396235,2083239
1710812396275,2084784
1710812396315,2086766
1710812396355,2088349
1710812396396,2089074
1710812396436,2089810
1710812396476,2090618
1710812396516,2091675
1710812396556,2093253
1710812396597,2094981
1710812396636,2096822
1710812396677,2098751
1710812396717,2100782
1710812396757,2102720
1710812396798,2103042
1710812396837,2100816
1710812396877,2098438
1710812396918,2096910
1710812396958,2096841
1710812396998,2097998
1710812397038,2099879
1710812397078,2101291
1710812397118,2102100
1710812397158,2102640
1710812397199,2103184
1710812397238,2103838
1710812397278,2105067
1710812397318,2106560
1710812397359,2108126
1710812397399,2109850
1710812397439,2111591
1710812397479,2113109
1710812397519,2111710
1710812397559,2108290
1710812397600,2105165
1710812397639,2103441
1710812397679,2103359
1710812397719,2104230
1710812397760,2105325
1710812397800,2106152
1710812397840,2106170
1710812397880,2105918
1710812397920,2105877
1710812397960,2106476
1710812398001,2107298
1710812398040,2108448
1710812398080,2109790
1710812398121,2111163
1710812398160,2112619
1710812398201,2111414
1710812398241,2107061
1710812398281,2102195
1710812398321,2098957
1710812398361,2097244
1710812398402,2096944
1710812398441,2097363
1710812398481,2097455
1710812398521,2096711
1710812398561,2095646
1710812398602,2094753
1710812398642,2094440
1710812398682,2094745
1710812398722,2095419
1710812398762,2096286
1710812398803,2097368
1710812398842,2098492
1710812398882,2097366
1710812398923,2091760
1710812398963,2085358
1710812399003,2080616
1710812399043,2077907
1710812399083,2076433
1710812399123,2076087
1710812399163,2075872
1710812399204,2074630
1710812399244,2072799
1710812399284,2071451
1710812399324,2070710
1710812399364,2070604
1710812399405,2071121
1710812399444,2071841
1710812399484,2072827
1710812399524,2073869
1710812399564,2073672
1710812399605,2068264
1710812399645,2060835
1710812399685,2054800
1710812399725,2051059
1710812399765,2048871
1710812399806,2047951
1710812399845,2047588
1710812399885,2046551
1710812399925,2044763
1710812399965,2043160
1710812400006,2042383
1710812400046,2042229
1710812400086,2043012
1710812400126,2043883
1710812400166,2044870
1710812400207,2046269
1710812400246,2047590
1710812400286,2047460
1710812400326,2042038
1710812400366,2034540
1710812400407,2029075
1710812400447,2025832
1710812400487,2024149
1710812400527,2023619
1710812400567,2023523
1710812400608,2022502
1710812400647,2021278
1710812400687,2020398
1710812400725,2020085
1710812400765,2020591
1710812400806,2021755
1710812400845,2023241
1710812400885,2025023
1710812400925,2026687
1710812400965,2028537
1710812401006,2030202
1710812401046,2028294
1710812401086,2022545
1710812401126,2016775
1710812401166,2013257
1710812401207,2011641
1710812401246,2011251
1710812401286,2011672
1710812401327,2011939
1710812401367,2011394
1710812401407,2010861
1710812401447,2010697
1710812401487,2011462
1710812401527,2012821
1710812401567,2014379
1710812401608,2016349
1710812401647,2018514
1710812401688,2020513
1710812401728,2022562
1710812401768,2024860
1710812401809,2025401
1710812401848,2021598
1710812401888,2016661
1710812401928,2013431
1710812401968,2012196
1710812402009,2012242
1710812402049,2013185
1710812402089,2014028
1710812402129,2014429
1710812402169,2014278
1710812402210,2014499
1710812402249,2015224
1710812402289,2016862
1710812402330,2018682
1710812402370,2020899
1710812402410,2022998
1710812402450,2025314
1710812402490,2027662
1710812402530,2030017
1710812402570,2032385
1710812402611,2032156
1710812402650,2028822
1710812402691,2025184
1710812402731,2023539
1710812402771,2023369
1710812402812,2024434
1710812402851,2026097
1710812402891,2027263
1710812402931,2027934
1710812402971,2028213
1710812403012,2029074
1710812403052,2030331
1710812403092,2032203
1710812403132,2034323
1710812403172,2036652
1710812403213,2039087
1710812403252,2041437
1710812403293,2043782
1710812403333,2046283
1710812403373,2048361
1710812403414,2047592
1710812403453,2044501
1710812403493,2042239
1710812403514,2041744
1710812403554,2042619
1710812403595,2044343
1710812403634,2046345
1710812403674,2047579
1710812403714,2048349
1710812403754,2049032
1710812403795,2050167
1710812403834,2051617
1710812403875,2053558
1710812403915,2055880
1710812403955,2058209
1710812403996,2060553
1710812404035,2062913
1710812404075,2065176
1710812404115,2067552
1710812404155,2067891
1710812404196,2065722
1710812404236,2063320
1710812404275,2062544
1710812404316,2063168
1710812404356,2064773
1710812404396,2066702
1710812404436,2068400
1710812404476,2069347
1710812404516,2070138
1710812404556,2070921
1710812404597,2072296
1710812404636,2073986
1710812404676,2075940
1710812404717,2078100
1710812404757,2080332
1710812404798,2082406
1710812404837,2084612
1710812404877,2086708
1710812404917,2087011
1710812404957,2085151
1710812404998,2082798
1710812405037,2081776
1710812405078,2082055
1710812405118,2083523
1710812405158,2085433
1710812405199,2086906
1710812405238,2087809
1710812405278,2088472
1710812405318,2089218
1710812405358,2090218
1710812405399,2091662
1710812405439,2093350
1710812405478,2095087
1710812405519,2097176
1710812405559,2099018
1710812405600,2100969
1710812405639,2101688
1710812405679,2099745
1710812405719,2097200
1710812405759,2095753
1710812405800,2095643
1710812405839,2096573
1710812405880,2098263
1710812405920,2099743
1710812405960,2100521
1710812406001,2100935
1710812406040,2101389
1710812406080,2102012
1710812406120,2103040
1710812406160,2104501
1710812406201,2106084
1710812406241,2107674
1710812406281,2109388
1710812406321,2110466
1710812406361,2108343
1710812406402,2104769
1710812406441,2101861
1710812406481,2100385
1710812406521,2100433
1710812406561,2101337
1710812406602,2102447
1710812406642,2102773
1710812406682,2102629
1710812406722,2102244
1710812406762,2102298
1710812406803,2102797
1710812406842,2103647
1710812406882,2104890
1710812406922,2106006
1710812406962,2107471
1710812407003,2108011
1710812407043,2104518
1710812407083,2099318
1710812407123,2094892
1710812407163,2092613
1710812407204,2091431
1710812407243,2091529
1710812407283,2091888
1710812407323,2091395
1710812407364,2090284
1710812407404,2089193
1710812407444,2088514
1710812407484,2088476
1710812407524,2088928
1710812407564,2089686
1710812407605,2090764
1710812407645,2091961
1710812407685,2091757
1710812407725,2086941
1710812407765,2080490
1710812407806,2075099
1710812407845,2071928
1710812407885,2070268
1710812407925,2069955
1710812407966,2069761
1710812408006,2068829
1710812408046,2067212
1710812408086,2065581
1710812408126,2064849
1710812408166,2064709
1710812408207,2065075
1710812408246,2065962
1710812408287,2066869
1710812408327,2068007
1710812408367,2068455
1710812408408,2063778
1710812408447,2056409
1710812408487,2050070
1710812408527,2046144
1710812408568,2043535
1710812408608,2042580
1710812408648,2042314
1710812408688,2041332
1710812408728,2039822
1710812408768,2038382
1710812408809,2037694
1710812408848,2037748
1710812408891,2038409
1710812408929,2039613
1710812408969,2040791
1710812409010,2042323
1710812409049,2043766
1710812409089,2044033
1710812409129,2039191
1710812409170,2031847
1710812409210,2025962
1710812409250,2022341
1710812409290,2020278
1710812409330,2019580
1710812409370,2019454
1710812409411,2018800
1710812409450,2017595
1710812409490,2016513
1710812409531,2016280
1710812409571,2016818
1710812409612,2017905
1710812409651,2019519
1710812409691,2021226
1710812409731,2023163
1710812409772,2025001
1710812409812,2026905
1710812409852,2020613
1710812409892,2014400
1710812409932,2010174
1710812409972,2008056
1710812410013,2007312
1710812410052,2007715
1710812410092,2007746
1710812410132,2007439
1710812410172,2006839
1710812410213,2006513
1710812410252,2007037
1710812410292,2008294
1710812410332,2009985
1710812410373,2011967
1710812410413,2014071
1710812410453,2016181
1710812410493,2018467
1710812410533,2020794
1710812410573,2023211
1710812410614,2023869
1710812410653,2019983
1710812410693,2014844
1710812410734,2011325
1710812410773,2009777
1710812410814,2009532
1710812410854,2010403
1710812410894,2011331
1710812410934,2011543
1710812410974,2011303
1710812411015,2011536
1710812411054,2012416
1710812411097,2013885
1710812411134,2015788
1710812411175,2018065
1710812411215,2020467
1710812411255,2022844
1710812411295,2025209
1710812411335,2027530
1710812411375,2029989
1710812411416,2032609
1710812411455,2032404
1710812411495,2028985
1710812411535,2025278
1710812411576,2023280
1710812411616,2023108
1710812411656,2024017
1710812411696,2025489
1710812411736,2026665
1710812411776,2027148
1710812411817,2027488
1710812411856,2028084
1710812411896,2029439
1710812411937,2031215
1710812411977,2033338
1710812412018,2035584
1710812412057,2038096
1710812412097,2040429
1710812412137,2042786
1710812412177,2045120
1710812412218,2047587
1710812412258,2050026
1710812412298,2050232
1710812412338,2047340
1710812412378,2044484
1710812412419,2042998
1710812412458,2043186
1710812412498,2044622
1710812412538,2046354
1710812412578,2047821
1710812412619,2048496
1710812412659,2048964
1710812412699,2049687
1710812412741,2050979
1710812412781,2052774
1710812412822,2054877
1710812412861,2057050
1710812412901,2059217
1710812412941,2061608
1710812412981,2063989
1710812413022,2066112
1710812413062,2068507
1710812413102,2070739
1710812413142,2070975
1710812413182,2068519
1710812413223,2065988
1710812413262,2064932
1710812413302,2065321
1710812413342,2066856
1710812413383,2068828
1710812413423,2070411
1710812413463,2071361
1710812413503,2071937
1710812413543,2072730
1710812413583,2074022
1710812413624,2075562
1710812413663,2077585
1710812413703,2079665
1710812413744,2081973
1710812413784,2084116
1710812413824,2086175
1710812413864,2088219
1710812413904,2090540
1710812413944,2092055
1710812413984,2090898
1710812414025,2088321
1710812414064,2086552
1710812414105,2086092
1710812414145,2086910
1710812414185,2088721
1710812414226,2090448
1710812414265,2091755
1710812414305,2092575
1710812414345,2093137
1710812414385,2094073
1710812414426,2095213
1710812414466,2096757
1710812414506,2098614
1710812414546,2100497
1710812414586,2102548
1710812414627,2104408
1710812414666,2106364
1710812414707,2108221
1710812414747,2109641
1710812414787,2108209
1710812414828,2105574
1710812414867,2103716
1710812414907,2103120
1710812414947,2103673
1710812414987,2105318
1710812415028,2106992
1710812415067,2107971
1710812415107,2108508
1710812415148,2108945
1710812415188,2109508
1710812415228,2110460
1710812415268,2111772
1710812415308,2113380
1710812415348,2114912
1710812415388,2116575
1710812415429,2118328
1710812415469,2119838
1710812415509,2119510
1710812415549,2116866
1710812415589,2114188
1710812415630,2112595
1710812415669,2112360
1710812415709,2113289
1710812415750,2114700
1710812415790,2115910
1710812415830,2116189
1710812415870,2116378
1710812415910,2116509
1710812415950,2117002
1710812415990,2117878
1710812416031,2119004
1710812416071,2120237
1710812416111,2121624
1710812416151,2123152
1710812416191,2124153
1710812416232,2121863
1710812416271,2117926
1710812416311,2114273
1710812416352,2112214
1710812416392,2111528
1710812416433,2111861
1710812416472,2112613
1710812416512,2112818
1710812416552,2112285
1710812416592,2111481
1710812416633,2111127
1710812416672,2111097
1710812416712,2111490
1710812416753,2112326
1710812416792,2113260
1710812416833,2114363
1710812416873,2115379
1710812416913,2113065
1710812416953,2107811
1710812416993,2102408
1710812417034,2098548
1710812417073,2096423
1710812417113,2095607
1710812417153,2095807
1710812417193,2095468
1710812417234,2094275
1710812417274,2092702
1710812417314,2091514
1710812417354,2090909
1710812417394,2090932
1710812417435,2091394
1710812417474,2092061
1710812417514,2093014
1710812417554,2094004
1710812417595,2092559
1710812417635,2086744
1710812417675,2079940
1710812417715,2074822
1710812417755,2071565
1710812417795,2069839
1710812417836,2069423
1710812417875,2068870
1710812417915,2067492
1710812417955,2065667
1710812417995,2063934
1710812418036,2063043
1710812418076,2062879
1710812418116,2063431
1710812418156,2064074
1710812418196,2064932
1710812418237,2066014
1710812418276,2066752
1710812418316,2062969
1710812418356,2055861
1710812418396,2049258
1710812418437,2044939
1710812418476,2042374
1710812418517,2041154
1710812418557,2040817
1710812418597,2040001
1710812418638,2038467
1710812418677,2036743
1710812418717,2035777
1710812418757,2035523
1710812418797,2035947
1710812418838,2036795
1710812418877,2038027
1710812418918,2039432
1710812418958,2040703
1710812418998,2042247
1710812419039,2042854
1710812419078,2038371
1710812419118,2031402
1710812419158,2025532
1710812419198,2021937
1710812419239,2019862
1710812419279,2019020
1710812419319,2018796
1710812419359,2018121
1710812419399,2016807
1710812419440,2015589
1710812419479,2015128
1710812419519,2015393
1710812419559,2016364
1710812419599,2017710
1710812419640,2019241
1710812419680,2021048
1710812419720,2022871
1710812419760,2024637
1710812419800,2026408
1710812419841,2027287
1710812419880,2023166
1710812419920,2016960
1710812419960,2012073
1710812420001,2009326
1710812420041,2008027
1710812420081,2007819
1710812420121,2008076
1710812420161,2007872
1710812420201,2007043
1710812420242,2006503
1710812420281,2006728
1710812420321,2007506
1710812420362,2008997
1710812420402,2010850
1710812420443,2012829
1710812420482,2014932
1710812420522,2017155
1710812420562,2019343
1710812420602,2021586
1710812420643,2023831
1710812420683,2023260
1710812420723,2018652
1710812420763,2013914
1710812420803,2011188
1710812420844,2010171
1710812420883,2010402
1710812420923,2011372
1710812420964,2012202
1710812421004,2012227
1710812421045,2011949
1710812421084,2012189
1710812421124,2013108
1710812421164,2014676
1710812421205,2016542
1710812421245,2018696
1710812421285,2021041
1710812421325,2023360
1710812421365,2025617
1710812421405,2027989
1710812421446,2030424
1710812421485,2032574
1710812421525,2031174
1710812421566,2027338
1710812421606,2024009
1710812421647,2022425
1710812421686,2022768
1710812421726,2023924
1710812421766,2025514
1710812421807,2026671
1710812421847,2026937
1710812421887,2027117
1710812421927,2027987
1710812421967,2029325
1710812422007,2031242
1710812422048,2033328
1710812422087,2035587
1710812422128,2038221
1710812422168,2040513
1710812422208,2042795
1710812422249,2045006
1710812422288,2047722
1710812422328,2048988
1710812422368,2046824
1710812422409,2043533
1710812422449,2041476
1710812422489,2041129
1710812422529,2042153
1710812422569,2044039
1710812422609,2045688
1710812422650,2046714
1710812422689,2047384
1710812422730,2047921
1710812422770,2049201
1710812422810,2050664
1710812422851,2052560
1710812422890,2054722
1710812422930,2056966
1710812422970,2061500
1710812423011,2063715
1710812423051,2066201
1710812423091,2068061
1710812423131,2066872
1710812423171,2064023
1710812423211,2061863
1710812423252,2061261
1710812423291,2062060
1710812423331,2063787
1710812423371,2065617
1710812423411,2067108
1710812423452,2067902
1710812423492,2068508
1710812423532,2069461
1710812423572,2070708
1710812423612,2072390
1710812423653,2074395
1710812423692,2076508
1710812423732,2078599
1710812423772,2080758
1710812423812,2082846
1710812423853,2085008
1710812423893,2085311
1710812423933,2083138
1710812423973,2080689
1710812424013,2079352
1710812424054,2079457
1710812424093,2080821
1710812424133,2082733
1710812424173,2084397
1710812424213,2085486
1710812424254,2086207
1710812424294,2086872
1710812424334,2087749
1710812424374,2089177
1710812424414,2090787
1710812424455,2092588
1710812424494,2094551
1710812424534,2096609
1710812424574,2098651
1710812424614,2100081
1710812424655,2098688
1710812424695,2095893
1710812424735,2093249
1710812424775,2092312
1710812424815,2092482
1710812424856,2093736
1710812424895,2095444
1710812424935,2096481
1710812424975,2097032
1710812425015,2097231
1710812425056,2097609
1710812425096,2098483
1710812425136,2099613
1710812425176,2101104
1710812425216,2102737
1710812425257,2104388
1710812425296,2106192
1710812425336,2107224
1710812425376,2104845
1710812425417,2100873
1710812425457,2097518
1710812425497,2095681
1710812425537,2095131
1710812425577,2095739
1710812425617,2096765
1710812425658,2097108
1710812425697,2097030
1710812425738,2096528
1710812425778,2096489
1710812425818,2096710
1710812425859,2097529
1710812425898,2098457
1710812425938,2099809
1710812425978,2101151
1710812426018,2102560
1710812426059,2102740
1710812426099,2098888
1710812426139,2093643
1710812426179,2089243
1710812426219,2086591
1710812426260,2085556
1710812426299,2085604
1710812426339,2086035
1710812426380,2085897
1710812426420,2084876
1710812426460,2083878
1710812426500,2083166
1710812426540,2083235
1710812426580,2083804
1710812426620,2084644
1710812426661,2085696
1710812426701,2086794
1710812426741,2088131
1710812426781,2087554
1710812426821,2082535
1710812426862,2076032
1710812426901,2070908
1710812426941,2067847
1710812426982,2066337
1710812427022,2065974
1710812427062,2065909
1710812427102,2065265
1710812427142,2064032
1710812427182,2062694
1710812427223,2062022
1710812427263,2062035
1710812427303,2062871
1710812427343,2063785
1710812427383,2065031
1710812427423,2066319
1710812427464,2067751
1710812427503,2068595
1710812427544,2064735
1710812427584,2057900
1710812427624,2051503
1710812427665,2047396
1710812427704,2045198
1710812427744,2044037
1710812427784,2043910
1710812427825,2043346
1710812427865,2042193
1710812427905,2040629
1710812427945,2039679
1710812427985,2039603
1710812428025,2040323
1710812428066,2041280
1710812428106,2042453
1710812428146,2044044
1710812428186,2045656
1710812428226,2047110
1710812428267,2048725
1710812428307,2046847
1710812428347,2040751
1710812428387,2034184
1710812428427,2029784
1710812428468,2027398
1710812428507,2026519
1710812428548,2026419
1710812428588,2026460
1710812428628,2025649
1710812428669,2024684
1710812428708,2023865
1710812428748,2023951
1710812428789,2024678
1710812428829,2025914
1710812428870,2027702
1710812428909,2029478
1710812428949,2031466
1710812428989,2033339
1710812429029,2035378
1710812429070,2037362
1710812429109,2036650
1710812429150,2031731
1710812429190,2025991
1710812429230,2022202
1710812429271,2020404
1710812429310,2020049
1710812429350,2020547
1710812429390,2021207
1710812429430,2021036
1710812429471,2020599
1710812429511,2020339
1710812429551,2020665
1710812429591,2021777
1710812429631,2023312
1710812429672,2025291
1710812429711,2027358
1710812429751,2029457
1710812429791,2031651
1710812429831,2033735
1710812429872,2036113
1710812429912,2038330
1710812429952,2037335
1710812429992,2032964
1710812430032,2028384
1710812430073,2026129
1710812430112,2025441
1710812430152,2026186
1710812430192,2027611
1710812430233,2028661
1710812430273,2028927
1710812430313,2028943
1710812430353,2029229
1710812430393,2030245
1710812430433,2031731
1710812430474,2033634
1710812430513,2035899
1710812430554,2038215
1710812430594,2040428
1710812430634,2042768
1710812430675,2045075
1710812430714,2047615
1710812430754,2049773
1710812430794,2048705
1710812430834,2045154
1710812430875,2041870
1710812430915,2040299
1710812430955,2040385
1710812430995,2041776
1710812431035,2043552
1710812431076,2044946
1710812431115,2045780
1710812431155,2046269
1710812431196,2046941
1710812431235,2048129
1710812431276,2049855
1710812431316,2051892
1710812431356,2054155
1710812431396,2056439
1710812431436,2058771
1710812431477,2061105
1710812431516,2063541
1710812431557,2065736
1710812431597,2068028
1710812431637,2067554
1710812431678,2064698
1710812431717,2061860
1710812431757,2060566
1710812431797,2060925
1710812431837,2062307
1710812431878,2064247
1710812431918,2065879
1710812431958,2066858
1710812431998,2067309
1710812432038,2067991
1710812432079,2069088
1710812432118,2070692
1710812432159,2072384
1710812432199,2074515
1710812432239,2076626
1710812432280,2078874
1710812432319,2080897
1710812432359,2083260
1710812432400,2085263
1710812432439,2085110
1710812432480,2082451
1710812432520,2080075
1710812432560,2078838
1710812432600,2078938
1710812432640,2080250
1710812432681,2082295
1710812432721,2083991
1710812432761,2084879
1710812432801,2085349
1710812432841,2085960
1710812432882,2086720
1710812432921,2087954
1710812432961,2089671
1710812433002,2091466
1710812433042,2093344
1710812433082,2095252
1710812433122,2097160
1710812433162,2098889
1710812433202,2097404
1710812433242,2094278
1710812433283,2091302
1710812433323,2089629
1710812433363,2089520
1710812433403,2090429
1710812433443,2091929
1710812433484,2093059
1710812433523,2093295
1710812433563,2093381
1710812433604,2093308
1710812433644,2094006
1710812433685,2094926
1710812433724,2096227
1710812433764,2097649
1710812433804,2099215
1710812433845,2100852
1710812433885,2102299
1710812433925,2101220
1710812433965,2097113
1710812434005,2092919
1710812434045,2090010
1710812434086,2088685
1710812434125,2088765
1710812434166,2089519
1710812434206,2089977
1710812434246,2089685
1710812434287,2088874
1710812434326,2088373
1710812434366,2088245
1710812434406,2088580
1710812434447,2089405
1710812434487,2090509
1710812434527,2091607
1710812434567,2092775
1710812434607,2094041
1710812434647,2092514
1710812434688,2087457
1710812434728,2078390
1710812434768,2076047
1710812434808,2075240
1710812434848,2075478
1710812434888,2075409
1710812434928,2074563
1710812434968,2073226
1710812435008,2072117
1710812435048,2071561
1710812435089,2071886
1710812435128,2072397
1710812435168,2073326
1710812435209,2074302
1710812435249,2075469
1710812435290,2076685
1710812435329,2076028
1710812435369,2070670
1710812435409,2064354
1710812435449,2059327
1710812435490,2056324
1710812435529,2054762
1710812435569,2054251
1710812435610,2053928
1710812435650,2053184
1710812435691,2051397
1710812435730,2050170
1710812435770,2049474
1710812435810,2049524
1710812435850,2050289
1710812435891,2051166
1710812435930,2052361
1710812435971,2053545
1710812436011,2054838
1710812436051,2056258
1710812436092,2056630
1710812436131,2051833
1710812436171,2045204
1710812436211,2039438
1710812436252,2035706
1710812436292,2033797
1710812436332,2032984
1710812436372,2032666
1710812436412,2031870
1710812436452,2030474
1710812436493,2029097
1710812436532,2028365
1710812436572,2028474
1710812436612,2029302
1710812436652,2030372
1710812436693,2031654
1710812436733,2033152
1710812436773,2034799
1710812436813,2036349
1710812436853,2038045
1710812436894,2039810
1710812436933,2038189
1710812436974,2032530
1710812437014,2026486
1710812437054,2022332
1710812437095,2020094
1710812437134,2018992
1710812437174,2018783
1710812437214,2018564
1710812437254,2017985
1710812437295,2016709
1710812437335,2015955
1710812437375,2016126
1710812437415,2016950
1710812437455,2018129
1710812437496,2019695
1710812437535,2021422
1710812437575,2023173
1710812437615,2025182
1710812437655,2026890
1710812437696,2028853
1710812437736,2031073
1710812437776,2031907
1710812437816,2028447
1710812437856,2023244
1710812437897,2019139
1710812437936,2016982
1710812437976,2016393
1710812438017,2016692
1710812438057,2017442
1710812438098,2017470
1710812438137,2017017
1710812438177,2016649
1710812438217,2016936
1710812438257,2017682
1710812438298,2019263
1710812438338,2021014
1710812438378,2023025
1710812438418,2025127
1710812438458,2027239
1710812438499,2029337
1710812438538,2031513
1710812438578,2033745
1710812438619,2036067
1710812438659,2035536
1710812438699,2031556
1710812438739,2027534
1710812438779,2025144
1710812438819,2024574
1710812438859,2025243
1710812438900,2026567
1710812438940,2027532
1710812438980,2027725
1710812439020,2027810
1710812439060,2028083
1710812439101,2029016
1710812439141,2030404
1710812439181,2032359
1710812439221,2034436
1710812439261,2036557
1710812439302,2038922
1710812439341,2041100
1710812439381,2043385
1710812439422,2045510
1710812439462,2047932
1710812439503,2049860
1710812439542,2048045
1710812439582,2044413
1710812439622,2041326
1710812439662,2040193
1710812439703,2040360
1710812439743,2041724
1710812439783,2043463
1710812439823,2044545
1710812439863,2045053
1710812439904,2045357
1710812439943,2046067
1710812439983,2047302
1710812440024,2048968
1710812440064,2050918
1710812440105,2053082
1710812440144,2055305
1710812440184,2057493
1710812440224,2059904
1710812440264,2062035
1710812440305,2064218
1710812440345,2066354
1710812440385,2065668
1710812440425,2062654
1710812440465,2059945
1710812440506,2058667
1710812440546,2058935
1710812440586,2060309
1710812440626,2062181
1710812440666,2063658
1710812440707,2064381
1710812440746,2064891
1710812440786,2065492
1710812440826,2066564
1710812440866,2068044
1710812440907,2069748
1710812440947,2071787
1710812440987,2073912
1710812441027,2075934
1710812441067,2077982
1710812441108,2080153
1710812441147,2081854
1710812441187,2080847
1710812441227,2077724
1710812441267,2075058
1710812441308,2073859
1710812441347,2073962
1710812441388,2075129
1710812441428,2076937
1710812441468,2078179
1710812441509,2078771
1710812441548,2079137
1710812441588,2079697
1710812441628,2080608
1710812441668,2081945
1710812441709,2083679
1710812441749,2085450
1710812441789,2087266
1710812441829,2089152
1710812441869,2091156
1710812441910,2092462
1710812441949,2090572
1710812441989,2086891
1710812442029,2083407
1710812442069,2081671
1710812442110,2081150
1710812442150,2081962
1710812442190,2083299
1710812442230,2084165
1710812442270,2084239
1710812442311,2084020
1710812442350,2084035
1710812442390,2084673
1710812442430,2085703
1710812442471,2087004
1710812442512,2088407
1710812442551,2090012
1710812442591,2091676
1710812442631,2093371
1710812442671,2093002
1710812442712,2088738
1710812442751,2083473
1710812442791,2079705
1710812442832,2077766
1710812442872,2077109
1710812442913,2077545
1710812442952,2078089
1710812442992,2077901
1710812443032,2077089
1710812443072,2076239
1710812443113,2075909
1710812443153,2076498
1710812443193,2077300
1710812443233,2078440
1710812443273,2079881
1710812443314,2081213
1710812443353,2082674
1710812443393,2084234
1710812443433,2083468
1710812443474,2077771
1710812443514,2071121
1710812443554,2065679
1710812443594,2062682
1710812443634,2061124
1710812443674,2060758
1710812443715,2060576
1710812443755,2059587
1710812443795,2058118
1710812443835,2056640
1710812443875,2055960
1710812443916,2055902
1710812443955,2056508
1710812443995,2057570
1710812444036,2058753
1710812444076,2059987
1710812444117,2061276
1710812444156,2062783
1710812444196,2063987
1710812444236,2061145
1710812444276,2054184
1710812444317,2047264
1710812444357,2042311
1710812444397,2039638
1710812444437,2038444
1710812444477,2038050
1710812444518,2037638
1710812444557,2036302
1710812444597,2034763
1710812444638,2033540
1710812444678,2033239
1710812444718,2033545
1710812444758,2034579
1710812444798,2035806
1710812444838,2037120
1710812444878,2038704
1710812444919,2040388
1710812444959,2041808
1710812444999,2043742
1710812445039,2045001
1710812445079,2041536
1710812445120,2034906
1710812445159,2028747
1710812445199,2025099
1710812445239,2023510
1710812445280,2023190
1710812445320,2023538
1710812445360,2023376
1710812445400,2022549
1710812445440,2021469
1710812445480,2020793
1710812445521,2021103
1710812445561,2022125
1710812445601,2023589
1710812445641,2025351
1710812445681,2027258
1710812445722,2029268
1710812445761,2031286
1710812445801,2033326
1710812445842,2035542
1710812445882,2037523
1710812445923,2035925
1710812445962,2030603
1710812446002,2025291
1710812446042,2022331
1710812446082,2021269
1710812446123,2021783
1710812446163,2023007
1710812446203,2023819
1710812446243,2023737
1710812446283,2023425
1710812446324,2023368
1710812446364,2024115
1710812446404,2025498
1710812446444,2027383
1710812446484,2029549
1710812446525,2031772
1710812446564,2034100
1710812446605,2038861
1710812446645,2041120
1710812446685,2043467
1710812446725,2042790
1710812446765,2038449
1710812446805,2034232
1710812446845,2031974
1710812446885,2031606
1710812446926,2032786
1710812446965,2034657
1710812447005,2036027
1710812447045,2036709
1710812447086,2036849
1710812447126,2037419
1710812447166,2038284
1710812447206,2039764
1710812447246,2041560
1710812447286,2043678
1710812447327,2045973
1710812447366,2048425
1710812447406,2050571
1710812447447,2052943
1710812447487,2055355
1710812447527,2056538
1710812447567,2054094
1710812447607,2050548
1710812447647,2048242
1710812447687,2047739
1710812447728,2048618
1710812447767,2050696
1710812447808,2052559
1710812447847,2053951
1710812447888,2054489
1710812447928,2055065
1710812447968,2055898
1710812448008,2057073
1710812448048,2058837
1710812448088,2060797
1710812448129,2062892
1710812448168,2065109
1710812448208,2067290
1710812448248,2069612
1710812448289,2069202
1710812448329,2065581
1710812448369,2062055
1710812448409,2059731
1710812448449,2059271
1710812448489,2060145
1710812448530,2061764
1710812448569,2063359
1710812448609,2063860
1710812448650,2063958
1710812448690,2064129
1710812448730,2064798
1710812448770,2065933
1710812448810,2067431
1710812448851,2069169
1710812448891,2071043
1710812448932,2072886
1710812448971,2074753
1710812449012,2073507
1710812449052,2068585
1710812449092,2063371
1710812449133,2059905
1710812449172,2058607
1710812449212,2058594
1710812449252,2059568
1710812449292,2060212
1710812449333,2059909
1710812449373,2059004
1710812449413,2058517
1710812449453,2058685
1710812449493,2059245
1710812449534,2060608
1710812449573,2062041
1710812449613,2063643
1710812449654,2065149
1710812449694,2066778
1710812449735,2065950
1710812449774,2059696
1710812449814,2052657
1710812449854,2047227
1710812449894,2044013
1710812449935,2042653
1710812449975,2042225
1710812450015,2041901
1710812450055,2040843
1710812450095,2039134
1710812450136,2037660
1710812450175,2037111
1710812450215,2037151
1710812450255,2037967
1710812450296,2038983
1710812450336,2040421
1710812450376,2041863
1710812450416,2043241
1710812450456,2044844
1710812450496,2043852
1710812450537,2037571
1710812450577,2029940
1710812450617,2024358
1710812450657,2021133
1710812450697,2019452
1710812450738,2018972
1710812450777,2018538
1710812450817,2017514
1710812450857,2015832
1710812450898,2014465
1710812450939,2014036
1710812450978,2014379
1710812451018,2015505
1710812451058,2016761
1710812451099,2018270
1710812451139,2019827
1710812451179,2021580
1710812451219,2023221
1710812451259,2025189
1710812451299,2027147
1710812451340,2026968
1710812451380,2021280
1710812451420,2014033
1710812451460,2008835
1710812451500,2005919
1710812451541,2004856
1710812451580,2005055
1710812451620,2005046
1710812451661,2004201
1710812451701,2002969
1710812451742,2001944
1710812451781,2001693
1710812451821,2002454
1710812451862,2003589
1710812451902,2005234
1710812451943,2007071
1710812451982,2008853
1710812452022,2010948
1710812452062,2012814
1710812452103,2014839
1710812452143,2017058
1710812452183,2019459
1710812452223,2020389
1710812452263,2015801
1710812452303,2009783
1710812452344,2005057
1710812452384,2003015
1710812452424,2002545
1710812452464,2003306
1710812452504,2004150
1710812452545,2004189
1710812452584,2003313
1710812452624,2002858
1710812452664,2003072
1710812452704,2004060
1710812452745,2005649
1710812452784,2007461
1710812452824,2009703
1710812452865,2011850
1710812452905,2014157
1710812452945,2016333
1710812452985,2018492
1710812453025,2020922
1710812453065,2023435
1710812453105,2023855
1710812453146,2019646
1710812453185,2014350
1710812453226,2011020
1710812453266,2009903
1710812453306,2010419
1710812453346,2011917
1710812453386,2013232
1710812453426,2013676
1710812453466,2013680
1710812453506,2013624
1710812453547,2014381
1710812453586,2015742
1710812453626,2017605
1710812453667,2019757
1710812453707,2022086
1710812453747,2024558
1710812453787,2027010
1710812453827,2029296
1710812453867,2031664
1710812453907,2034086
1710812453948,2036038
1710812453987,2033923
1710812454027,2029914
1710812454068,2026595
1710812454107,2025298
1710812454148,2025738
1710812454188,2027512
1710812454228,2029361
1710812454268,2030653
1710812454308,2031099
1710812454349,2031325
1710812454388,2032023
1710812454429,2033258
1710812454468,2035016
1710812454509,2036991
1710812454550,2039259
1710812454589,2041526
1710812454629,2043834
1710812454669,2046133
1710812454709,2048329
1710812454750,2048051
1710812454789,2044400
1710812454829,2040616
1710812454870,2038514
1710812454910,2038134
1710812454951,2039276
1710812454990,2041030
1710812455030,2042468
1710812455070,2042976
1710812455110,2042983
1710812455151,2043139
1710812455190,2044048
1710812455231,2045358
1710812455271,2047155
1710812455311,2048836
1710812455352,2050838
1710812455391,2052946
1710812455431,2054922
1710812455471,2055905
1710812455512,2052689
1710812455552,2047651
1710812455592,2043562
1710812455632,2041601
1710812455672,2041399
1710812455712,2042244
1710812455753,2043499
1710812455792,2043740
1710812455832,2043195
1710812455873,2042594
1710812455913,2042491
1710812455953,2043138
1710812455993,2044390
1710812456033,2045934
1710812456073,2047541
1710812456113,2049219
1710812456154,2050998
1710812456193,2052084
1710812456234,2048413
1710812456274,2041939
1710812456314,2036171
1710812456355,2032715
1710812456394,2031367
1710812456434,2031202
1710812456474,2031792
1710812456514,2031358
1710812456555,2030366
1710812456595,2029170
1710812456635,2028558
1710812456675,2028829
1710812456715,2029929
1710812456756,2031183
1710812456795,2032703
1710812456836,2034241
1710812456876,2035967
1710812456916,2037496
1710812456957,2037253
1710812456996,2031257
1710812457036,2023551
1710812457076,2017508
1710812457116,2014107
1710812457157,2012381
1710812457197,2011769
1710812457237,2011588
1710812457277,2010735
1710812457317,2009071
1710812457358,2007700
1710812457397,2007002
1710812457437,2006946
1710812457478,2007606
1710812457518,2008839
1710812457559,2010300
1710812457598,2012004
1710812457638,2013764
1710812457678,2015581
1710812457718,2016118
1710812457759,2011221
1710812457799,2003774
1710812457839,1997786
1710812457879,1994536
1710812457919,1992999
1710812457960,1992631
1710812457999,1992758
1710812458039,1992255
1710812458079,1991022
1710812458120,1990106
1710812458160,1990055
1710812458200,1990809
1710812458240,1992071
1710812458280,1993859
1710812458320,1995821
1710812458361,1997848
1710812458401,1999917
1710812458441,2001882
1710812458481,2004273
1710812458521,2005005
1710812458562,2000522
1710812458601,1994054
1710812458641,1989250
1710812458681,1987033
1710812458722,1986497
1710812458763,1987222
1710812458802,1987911
1710812458842,1987200
1710812458882,1986875
1710812458922,1987459
1710812458963,1988602
1710812459002,1990326
1710812459042,1992401
1710812459082,1994652
1710812459122,1996877
1710812459163,1999331
1710812459202,2001614
1710812459243,2004118
1710812459283,2006226
1710812459323,2004053
1710812459364,1998638
1710812459403,1994289
1710812459443,1992113
1710812459483,1991993
1710812459523,1993075
1710812459564,1994469
1710812459604,1995357
1710812459644,1995298
1710812459684,1995172
1710812459724,1995827
1710812459765,1997255
1710812459804,1999106
1710812459844,2001351
1710812459884,2004024
1710812459924,2006169
1710812459965,2008691
1710812460005,2011013
1710812460045,2013601
1710812460085,2016095
1710812460125,2016001
1710812460166,2012309
1710812460205,2008400
1710812460245,2006497
1710812460285,2006692
1710812460326,2008002
1710812460366,2010246
1710812460406,2011661
1710812460446,2012427
1710812460486,2012585
1710812460526,2013286
1710812460567,2014656
1710812460606,2016555
1710812460646,2018847
1710812460687,2021274
1710812460727,2023833
1710812460767,2026343
1710812460807,2028806
1710812460847,2031380
1710812460886,2032116
1710812460926,2029256
1710812460967,2025468
1710812461006,2023314
1710812461047,2023095
1710812461087,2024286
1710812461127,2026415
1710812461168,2028149
1710812461207,2029114
1710812461247,2029510
1710812461287,2030064
1710812461327,2031206
1710812461368,2032967
1710812461408,2035012
1710812461448,2037263
1710812461488,2039698
1710812461528,2042051
1710812461569,2044599
1710812461608,2046864
1710812461648,2046503
1710812461688,2042385
1710812461729,2037733
1710812461770,2035210
1710812461809,2034577
1710812461849,2035328
1710812461889,2036898
1710812461929,2038087
1710812461970,2038531
1710812462010,2038617
1710812462050,2038765
1710812462090,2039811
1710812462130,2041327
1710812462171,2043267
1710812462210,2045328
1710812462250,2047417
1710812462290,2049689
1710812462331,2051953
1710812462372,2054240
1710812462411,2054236
1710812462451,2050184
1710812462491,2044960
1710812462531,2041537
1710812462572,2039943
1710812462612,2040147
1710812462652,2041295
1710812462692,2042556
1710812462732,2042977
1710812462773,2042914
1710812462812,2043219
1710812462852,2043897
1710812462892,2045110
1710812462933,2046897
1710812462973,2049068
1710812463013,2051250
1710812463053,2053415
1710812463093,2055707
1710812463133,2057877
1710812463174,2059945
1710812463214,2057912
1710812463254,2053207
1710812463294,2048769
1710812463334,2046658
1710812463375,2046325
1710812463414,2047195
1710812463454,2048553
1710812463494,2049493
1710812463534,2049543
1710812463575,2049249
1710812463615,2049461
1710812463655,2050399
1710812463695,2051711
1710812463735,2053585
1710812463776,2055511
1710812463815,2057501
1710812463855,2059492
1710812463896,2061520
1710812463936,2063537
1710812463977,2065092
1710812464016,2062295
1710812464056,2057265
1710812464096,2053358
1710812464136,2051573
1710812464177,2051485
1710812464217,2052735
1710812464257,2054023
1710812464297,2054781
1710812464337,2054750
1710812464378,2054442
1710812464418,2054695
1710812464458,2055612
1710812464498,2057097
1710812464538,2058685
1710812464579,2060590
1710812464618,2062498
1710812464658,2064509
1710812464699,2066443
1710812464739,2068460
1710812464780,2068604
1710812464819,2064861
1710812464859,2060799
1710812464899,2058279
1710812464939,2057505
1710812464980,2058510
1710812465020,2060020
1710812465060,2061341
1710812465100,2061918
1710812465140,2061778
1710812465180,2061873
1710812465220,2062396
1710812465260,2063586
1710812465300,2064979
1710812465340,2066746
1710812465381,2068614
1710812465420,2070647
1710812465460,2072630
1710812465501,2074203
1710812465541,2072295
1710812465582,2068233
1710812465621,2064633
1710812465661,2062969
1710812465701,2063032
1710812465741,2064276
1710812465782,2065960
1710812465821,2066957
1710812465862,2067174
1710812465902,2067093
1710812465942,2067347
1710812465983,2068060
1710812466022,2069383
1710812466062,2070973
1710812466102,2072666
1710812466142,2074461
1710812466183,2076346
1710812466223,2077769
1710812466263,2075043
1710812466303,2070040
1710812466343,2065666
1710812466384,2063605
1710812466423,2063007
1710812466463,2063759
1710812466503,2065075
1710812466543,2065474
1710812466584,2065240
1710812466624,2064558
1710812466664,2064518
1710812466704,2064979
1710812466744,2066199
1710812466785,2067751
1710812466824,2069359
1710812466864,2070980
1710812466905,2072735
1710812466945,2073343
1710812466986,2069041
1710812467025,2062815
1710812467065,2057660
1710812467105,2054937
1710812467145,2053733
1710812467186,2053974
1710812467225,2054236
1710812467266,2053858
1710812467306,2052710
1710812467346,2051539
1710812467387,2051082
1710812467426,2051470
1710812467466,2052410
1710812467506,2053545
1710812467547,2054835
1710812467587,2056384
1710812467627,2057981
1710812467667,2059121
1710812467707,2055309
1710812467747,2048265
1710812467788,2042034
1710812467827,2038438
1710812467867,2036584
1710812467908,2036159
1710812467948,2036194
1710812467989,2035624
1710812468028,2034543
1710812468068,2033311
1710812468108,2032819
1710812468148,2033079
1710812468189,2033933
1710812468228,2035184
1710812468269,2036837
1710812468309,2038337
1710812468349,2039978
1710812468390,2041836
1710812468429,2042540
1710812468469,2037919
1710812468509,2031620
1710812468549,2026669
1710812468590,2024139
1710812468630,2023137
1710812468670,2023409
1710812468710,2023896
1710812468750,2023638
1710812468791,2022882
1710812468830,2022344
1710812468871,2022431
1710812468911,2023174
1710812468951,2024550
1710812468992,2026270
1710812469031,2028230
1710812469074,2030173
1710812469111,2032190
1710812469151,2034281
1710812469192,2036240
1710812469232,2035419
1710812469272,2030548
1710812469312,2025328
1710812469352,2022220
1710812469393,2021258
1710812469432,2021552
1710812469473,2022702
1710812469513,2023458
1710812469553,2023496
1710812469594,2022953
1710812469633,2023057
1710812469673,2023887
1710812469714,2025519
1710812469754,2027259
1710812469794,2029316
1710812469834,2031618
1710812469874,2033864
1710812469914,2036074
1710812469954,2038359
1710812469995,2040275
1710812470035,2038398
1710812470075,2033992
1710812470115,2030103
1710812470155,2028691
1710812470196,2029021
1710812470235,2030265
1710812470275,2031858
1710812470316,2032695
1710812470356,2032957
1710812470397,2032885
1710812470436,2033677
1710812470476,2034844
1710812470516,2036715
1710812470557,2038677
1710812470598,2040964
1710812470637,2043178
1710812470677,2045396
1710812470717,2047801
1710812470757,2050238
1710812470798,2049960
1710812470838,2043509
1710812470878,2041825
1710812470918,2041928
1710812470958,2043595
1710812470999,2045594
1710812471038,2047079
1710812471078,2047849
1710812471118,2048153
1710812471158,2048925
1710812471199,2050079
1710812471238,2051746
1710812471281,2053791
1710812471318,2056038
1710812471359,2058093
1710812471399,2060276
1710812471439,2062663
1710812471479,2063485
1710812471519,2060882
1710812471559,2057498
1710812471600,2055535
1710812471639,2055220
1710812471679,2056530
1710812471720,2058504
1710812471760,2060016
1710812471800,2061045
1710812471840,2061433
1710812471880,2061843
1710812471920,2062836
1710812471960,2064326
1710812472001,2066006
1710812472040,2067966
1710812472080,2070191
1710812472121,2072222
1710812472161,2074098
1710812472201,2073033
1710812472241,2069091
1710812472281,2065184
1710812472321,2063295
1710812472361,2062895
1710812472402,2063698
1710812472441,2065295
1710812472482,2066270
1710812472522,2066428
1710812472562,2066262
1710812472603,2066403
1710812472642,2067082
1710812472682,2068358
1710812472722,2070038
1710812472762,2071785
1710812472803,2073559
1710812472843,2075401
1710812472883,2075748
1710812472923,2071830
1710812472963,2066889
1710812473004,2063188
1710812473043,2061611
1710812473083,2061127
1710812473123,2062132
1710812473163,2062885
1710812473204,2062918
1710812473244,2062340
1710812473284,2061905
1710812473324,2062041
1710812473364,2062907
1710812473405,2064089
1710812473444,2065726
1710812473484,2067342
1710812473524,2069022
1710812473564,2070888
1710812473605,2071412
1710812473645,2066778
1710812473685,2060512
1710812473725,2055531
1710812473765,2052688
1710812473806,2051485
1710812473845,2051427
1710812473885,2051687
1710812473926,2051370
1710812473966,2050279
1710812474006,2049308
1710812474046,2048999
1710812474086,2049495
1710812474126,2050522
1710812474166,2051825
1710812474207,2053447
1710812474246,2055045
1710812474287,2056905
1710812474327,2058652
1710812474367,2059248
1710812474408,2054712
1710812474447,2047931
1710812474487,2042518
1710812474528,2039320
1710812474568,2037827
1710812474608,2037615
1710812474648,2037822
1710812474688,2037603
1710812474728,2036670
1710812474768,2035799
1710812474809,2035593
1710812474849,2036165
1710812474889,2037383
1710812474929,2038902
1710812474969,2040643
1710812475010,2042552
1710812475049,2044450
1710812475089,2046450
1710812475130,2048573
1710812475170,2050627
1710812475210,2048897
1710812475250,2043265
1710812475290,2037703
1710812475330,2034382
1710812475370,2033201
1710812475411,2033154
1710812475450,2033796
1710812475491,2034359
1710812475531,2034238
1710812475571,2033661
1710812475612,2033547
1710812475651,2034123
1710812475691,2035243
1710812475732,2037051
1710812475772,2038919
1710812475812,2041050
1710812475852,2043296
1710812475892,2045431
1710812475932,2047653
1710812475972,2050009
1710812476013,2052138
1710812476052,2051279
1710812476093,2046745
1710812476133,2042178
1710812476173,2039776
1710812476214,2039110
1710812476253,2040015
1710812476293,2041533
1710812476334,2042856
1710812476374,2043266
1710812476414,2043315
1710812476454,2043715
1710812476494,2044735
1710812476534,2046256
1710812476574,2048073
1710812476615,2050320
1710812476655,2052647
1710812476695,2055035
1710812476735,2057368
1710812476775,2059705
1710812476816,2062012
1710812476855,2064183
1710812476895,2062998
1710812476936,2059293
1710812476976,2055800
1710812477017,2054429
1710812477056,2054719
1710812477096,2056132
1710812477136,2058105
1710812477176,2059742
1710812477217,2060572
1710812477256,2061011
1710812477296,2061762
1710812477336,2062945
1710812477376,2064774
1710812477417,2066825
1710812477457,2068970
1710812477497,2071269
1710812477537,2073727
1710812477577,2076123
1710812477618,2078463
1710812477657,2080915
1710812477697,2081577
1710812477737,2079153
1710812477777,2075789
1710812477818,2073887
1710812477858,2073638
1710812477898,2074751
1710812477938,2076663
1710812477978,2078709
1710812478019,2079899
1710812478058,2080731
1710812478098,2081452
1710812478138,2082395
1710812478178,2083678
1710812478219,2085483
1710812478259,2087299
1710812478299,2089672
1710812478339,2091754
1710812478379,2093916
1710812478420,2096311
1710812478459,2097805
1710812478499,2095872
1710812478539,2092947
1710812478579,2090919
1710812478620,2090253
1710812478659,2091055
1710812478699,2092789
1710812478740,2094817
1710812478780,2096244
1710812478820,2096975
1710812478860,2097496
1710812478900,2098197
1710812478940,2099346
1710812478980,2100665
1710812479021,2102430
1710812479060,2104345
1710812479101,2106211
1710812479141,2108043
1710812479181,2109419
1710812479222,2106888
1710812479261,2103216
1710812479301,2100500
1710812479341,2099324
1710812479381,2099637
1710812479422,2101150
1710812479462,2102569
1710812479502,2103015
1710812479542,2102767
1710812479582,2102687
1710812479622,2103203
1710812479662,2103862
1710812479702,2105264
1710812479742,2106805
1710812479782,2108454
1710812479823,2110154
1710812479863,2111877
1710812479903,2110829
1710812479943,2106175
1710812479983,2100650
1710812480024,2096814
1710812480063,2094932
1710812480103,2094364
1710812480143,2094993
1710812480184,2095249
1710812480224,2094776
1710812480264,2093721
1710812480304,2092679
1710812480344,2092334
1710812480384,2092698
1710812480425,2093392
1710812480464,2094447
1710812480504,2095737
1710812480544,2096961
1710812480584,2097813
1710812480625,2094000
1710812480665,2087343
1710812480705,2081059
1710812480745,2076998
1710812480785,2075039
1710812480826,2074338
1710812480865,2074300
1710812480906,2073530
1710812480946,2071989
1710812480986,2070243
1710812481027,2068997
1710812481066,2068587
1710812481106,2068893
1710812481146,2069473
1710812481186,2070303
1710812481227,2071423
1710812481267,2072716
1710812481307,2073171
1710812481347,2068947
1710812481387,2061848
1710812481428,2055550
1710812481467,2051485
1710812481507,2049506
1710812481547,2048948
1710812481587,2048916
1710812481628,2047926
1710812481668,2046374
1710812481708,2044806
1710812481748,2043743
1710812481788,2043745
1710812481829,2044252
1710812481868,2045289
1710812481908,2046649
1710812481949,2047973
1710812481989,2049469
1710812482030,2051014
1710812482069,2050715
1710812482109,2045421
1710812482149,2038971
1710812482189,2034400
1710812482230,2032148
1710812482270,2031535
1710812482310,2032055
1710812482350,2032453
1710812482390,2031990
1710812482431,2030817
1710812482471,2030058
1710812482511,2030105
1710812482551,2031002
1710812482591,2032303
1710812482632,2033840
1710812482671,2035647
1710812482711,2037648
1710812482751,2039581
1710812482792,2041605
1710812482832,2041948
1710812482872,2037617
1710812482912,2032226
1710812482952,2028473
1710812482992,2027082
1710812483033,2027291
1710812483073,2028530
1710812483113,2029488
1710812483153,2029571
1710812483193,2029266
1710812483234,2029030
1710812483273,2029550
1710812483313,2030850
1710812483353,2032454
1710812483394,2034639
1710812483434,2036740
1710812483474,2038759
1710812483514,2043334
1710812483554,2043463
1710812483594,2039963
1710812483635,2035801
1710812483674,2033612
1710812483714,2033261
1710812483754,2034392
1710812483795,2036356
1710812483835,2037645
1710812483875,2038284
1710812483915,2038511
1710812483955,2039023
1710812483995,2040020
1710812484036,2041559
1710812484075,2043474
1710812484115,2045855
1710812484155,2048050
1710812484195,2050478
1710812484236,2052645
1710812484276,2052745
1710812484316,2049245
1710812484356,2045507
1710812484396,2043514
1710812484437,2043295
1710812484476,2044584
1710812484516,2046401
1710812484556,2047899
1710812484596,2048601
1710812484637,2048704
1710812484677,2049214
1710812484717,2050218
1710812484757,2051764
1710812484797,2053668
1710812484838,2055667
1710812484877,2057992
1710812484917,2060324
1710812484958,2062194
1710812484999,2060240
1710812485039,2055680
1710812485079,2051744
1710812485119,2049923
1710812485159,2049637
1710812485199,2050739
1710812485240,2052063
1710812485279,2053026
1710812485319,2053027
1710812485360,2053068
1710812485400,2053360
1710812485440,2054552
1710812485480,2056040
1710812485520,2057826
1710812485560,2059856
1710812485600,2062101
1710812485641,2064169
1710812485680,2065933
1710812485720,2063487
1710812485760,2058009
1710812485801,2053172
1710812485841,2050506
1710812485881,2049692
1710812485921,2049881
1710812485961,2050671
1710812486001,2051132
1710812486042,2050731
1710812486081,2050362
1710812486121,2050394
1710812486162,2051119
1710812486202,2052523
1710812486242,2054065
1710812486282,2056026
1710812486322,2058017
1710812486362,2059995
1710812486402,2062111
1710812486443,2063557
1710812486482,2060201
1710812486522,2054595
1710812486563,2049944
1710812486603,2047657
1710812486644,2047000
1710812486683,2047242
1710812486723,2048033
1710812486763,2048173
1710812486804,2047679
1710812486844,2047262
1710812486884,2047314
1710812486924,2048044
1710812486964,2049407
1710812487004,2051022
1710812487045,2053031
1710812487084,2054892
1710812487124,2056968
1710812487165,2058885
1710812487205,2061119
1710812487245,2062022
1710812487285,2058441
1710812487325,2052955
1710812487365,2049023
1710812487405,2047282
1710812487446,2046929
1710812487485,2047620
1710812487526,2048584
1710812487566,2048952
1710812487606,2048630
1710812487647,2048334
1710812487686,2048702
1710812487726,2049730
1710812487766,2051139
1710812487806,2052929
1710812487847,2055014
1710812487887,2057020
1710812487927,2059138
1710812487967,2061091
1710812488007,2063332
1710812488048,2064474
1710812488087,2061258
1710812488127,2056466
1710812488167,2053141
1710812488207,2051767
1710812488248,2051939
1710812488288,2053214
1710812488328,2054519
1710812488368,2055242
1710812488408,2055300
1710812488449,2055297
1710812488488,2055920
1710812488528,2056955
1710812488569,2058564
1710812488609,2060441
1710812488649,2062705
1710812488689,2064726
1710812488729,2066975
1710812488769,2069299
1710812488809,2071587
1710812488850,2073071
1710812488889,2070411
1710812488930,2066603
1710812488970,2063569
1710812489010,2062499
1710812489051,2063247
1710812489090,2064908
1710812489130,2066762
1710812489170,2067930
1710812489211,2068317
1710812489251,2068785
1710812489291,2069441
1710812489331,2070627
1710812489371,2072380
1710812489411,2074413
1710812489452,2076537
1710812489491,2078723
1710812489531,2081031
1710812489572,2083373
1710812489612,2084984
1710812489653,2083163
1710812489692,2079698
1710812489732,2076949
1710812489772,2075946
1710812489812,2076571
1710812489853,2078336
1710812489893,2080365
1710812489933,2081724
1710812489973,2082656
1710812490013,2082947
1710812490054,2083812
1710812490093,2085065
1710812490133,2086738
1710812490173,2088557
1710812490213,2090717
1710812490254,2092823
1710812490294,2095136
1710812490333,2097055
1710812490374,2095568
1710812490414,2091830
1710812490455,2088233
1710812490494,2086574
1710812490534,2086549
1710812490574,2087682
1710812490614,2089434
1710812490655,2090730
1710812490694,2091245
1710812490734,2091350
1710812490775,2091562
1710812490815,2092364
1710812490855,2093513
1710812490895,2095233
1710812490935,2096833
1710812490975,2098866
1710812491015,2100820
1710812491056,2101780
1710812491095,2098510
1710812491136,2093465
1710812491175,2089390
1710812491216,2087304
1710812491256,2086610
1710812491296,2087526
1710812491336,2088726
1710812491376,2089329
1710812491416,2089190
1710812491457,2088531
1710812491496,2088541
1710812491536,2088987
1710812491576,2090092
1710812491617,2091319
1710812491657,2092942
1710812491697,2094573
1710812491737,2096232
1710812491777,2095034
1710812491817,2089519
1710812491858,2083445
1710812491897,2079346
1710812491937,2077203
1710812491977,2076726
1710812492018,2077257
1710812492058,2077849
1710812492098,2077548
1710812492138,2076591
1710812492178,2075837
1710812492218,2075967
1710812492259,2076411
1710812492298,2077523
1710812492338,2079055
1710812492378,2080654
1710812492418,2082394
1710812492459,2084054
1710812492499,2083103
1710812492539,2076700
1710812492579,2069365
1710812492619,2063725
1710812492660,2060667
1710812492699,2059356
1710812492739,2059239
1710812492779,2059510
1710812492819,2058880
1710812492860,2057728
1710812492900,2056761
1710812492940,2056408
1710812492980,2056870
1710812493020,2057923
1710812493061,2059269
1710812493100,2060987
1710812493140,2062803
1710812493180,2064521
1710812493220,2066346
1710812493261,2065563
1710812493301,2059133
1710812493341,2051579
1710812493381,2046104
1710812493421,2043282
1710812493462,2042126
1710812493501,2042363
1710812493541,2042763
1710812493581,2042512
1710812493621,2041658
1710812493662,2040806
1710812493702,2040806
1710812493742,2041460
1710812493782,2042757
1710812493822,2044282
1710812493863,2046360
1710812493902,2048479
1710812493942,2050571
1710812493982,2052583
1710812494022,2054808
1710812494063,2055549
1710812494103,2050597
1710812494143,2044080
1710812494183,2039097
1710812494223,2036687
1710812494264,2036205
1710812494303,2036860
1710812494343,2037912
1710812494383,2038416
1710812494423,2038242
1710812494464,2037904
1710812494504,2038083
1710812494544,2038998
1710812494584,2040542
1710812494624,2042442
1710812494665,2044532
1710812494704,2046947
1710812494744,2049226
1710812494784,2051636
1710812494824,2053962
1710812494865,2056467
1710812494905,2054938
1710812494945,2050062
1710812494985,2045396
1710812495025,2042743
1710812495066,2042255
1710812495106,2043123
1710812495146,2044992
1710812495186,2046471
1710812495226,2047120
1710812495266,2047322
1710812495306,2047654
1710812495346,2048653
1710812495386,2050098
1710812495426,2052270
1710812495467,2054433
1710812495507,2056922
1710812495547,2059469
1710812495587,2062082
1710812495627,2064589
1710812495668,2067070
1710812495707,2068387
1710812495747,2065244
1710812495787,2061136
1710812495827,2058128
1710812495868,2057116
1710812495908,2058010
1710812495948,2059971
1710812495988,2061952
1710812496028,2063308
1710812496069,2063988
1710812496108,2064375
1710812496148,2065203
1710812496189,2066679
1710812496229,2068470
1710812496269,2070595
1710812496309,2072979
1710812496349,2075431
1710812496389,2077932
1710812496429,2080292
1710812496470,2082814
1710812496510,2084305
1710812496550,2081873
1710812496590,2078010
1710812496630,2075245
1710812496671,2074352
1710812496710,2075157
1710812496750,2076938
1710812496791,2079012
1710812496831,2080426
1710812496871,2081215
1710812496911,2081729
1710812496951,2082451
1710812496989,2083651
1710812497029,2085275
1710812497070,2089228
1710812497109,2091463
1710812497149,2093701
1710812497189,2095940
1710812497230,2098166
1710812497270,2098330
1710812497310,2095171
1710812497350,2091795
1710812497390,2089740
1710812497430,2089318
1710812497471,2090422
1710812497510,2092359
1710812497550,2094059
1710812497590,2094940
1710812497630,2095384
1710812497671,2095691
1710812497710,2096521
1710812497751,2097467
1710812497791,2099012
1710812497831,2100766
1710812497872,2102579
1710812497911,2104572
1710812497951,2106484
1710812497991,2107516
1710812498031,2104736
1710812498072,2100862
1710812498111,2097793
1710812498151,2096649
1710812498192,2097078
1710812498232,2098515
1710812498272,2099920
1710812498312,2100881
1710812498352,2101077
1710812498392,2100986
1710812498432,2101258
1710812498473,2101980
1710812498512,2103071
1710812498552,2104540
1710812498592,2106013
1710812498632,2107849
1710812498673,2109508
1710812498713,2107857
1710812498753,2102928
1710812498793,2097842
1710812498833,2094501
1710812498874,2093206
1710812498913,2093249
1710812498953,2094289
1710812498993,2094858
1710812499033,2094434
1710812499074,2093655
1710812499113,2093002
1710812499153,2092888
1710812499194,2093425
1710812499234,2094446
1710812499274,2095594
1710812499314,2096948
1710812499354,2098590
1710812499394,2098530
1710812499434,2092965
1710812499475,2085721
1710812499514,2079589
1710812499554,2076096
1710812499594,2074351
1710812499635,2073998
1710812499675,2073961
1710812499715,2073170
1710812499755,2071464
1710812499795,2069715
1710812499835,2068637
1710812499876,2068527
1710812499915,2069063
1710812499955,2069849
1710812499995,2070995
1710812500035,2072141
1710812500076,2073659
1710812500116,2072732
1710812500156,2065762
1710812500196,2057093
1710812500236,2050594
1710812500277,2046559
1710812500316,2044193
1710812500356,2043269
1710812500396,2042508
1710812500436,2041190
1710812500477,2039121
1710812500517,2037343
1710812500557,2036296
1710812500597,2036192
1710812500637,2036724
1710812500678,2037804
1710812500717,2039160
1710812500757,2040360
1710812500797,2041841
1710812500838,2043194
1710812500878,2040775
1710812500918,2033286
1710812500958,2025673
1710812500998,2020332
1710812501038,2017591
1710812501079,2016283
1710812501119,2016199
1710812501159,2015991
1710812501199,2014794
1710812501239,2013270
1710812501280,2012088
1710812501319,2011939
1710812501359,2012632
1710812501399,2013827
1710812501439,2015470
1710812501480,2017374
1710812501520,2019098
1710812501560,2021128
1710812501600,2023135
1710812501640,2024333
1710812501681,2019874
1710812501720,2012998
1710812501760,2007575
1710812501800,2004721
1710812501841,2003714
1710812501881,2004245
1710812501921,2005292
1710812501961,2005210
1710812502001,2004491
1710812502041,2003876
1710812502082,2004042
1710812502121,2004955
1710812502162,2006474
1710812502202,2008458
1710812502242,2010783
1710812502283,2013217
1710812502322,2015713
1710812502362,2018129
1710812502402,2020659
1710812502443,2022723
1710812502483,2020360
1710812502523,2014970
1710812502563,2010394
1710812502603,2008013
1710812502643,2007934
1710812502684,2009159
1710812502723,2010759
1710812502764,2011718
1710812502804,2011778
1710812502844,2011617
1710812502885,2012131
1710812502924,2013422
1710812502964,2015295
1710812503004,2017520
1710812503045,2020003
1710812503085,2022670
1710812503125,2025296
1710812503165,2027942
1710812503205,2030697
1710812503245,2033101
1710812503286,2032412
1710812503325,2028268
1710812503366,2024176
1710812503406,2022137
1710812503446,2022079
1710812503487,2023519
1710812503526,2025775
1710812503566,2027444
1710812503606,2028204
1710812503647,2028431
1710812503687,2029096
1710812503727,2030277
1710812503767,2032095
1710812503807,2034410
1710812503847,2036837
1710812503888,2039536
1710812503927,2042103
1710812503967,2044658
1710812504008,2047372
1710812504048,2049644
1710812504088,2048112
1710812504128,2044577
1710812504168,2041620
1710812504208,2040619
1710812504248,2041382
1710812504289,2043267
1710812504328,2045702
1710812504368,2047384
1710812504408,2048226
1710812504448,2048805
1710812504489,2049625
1710812504529,2051136
1710812504569,2052890
1710812504609,2055132
1710812504649,2057438
1710812504690,2059902
1710812504729,2062408
1710812504769,2064905
1710812504809,2065559
1710812504850,2062439
1710812504890,2058728
1710812504930,2056374
1710812504970,2055874
1710812505010,2056973
1710812505050,2058834
1710812505091,2060828
1710812505130,2061740
1710812505170,2062164
1710812505210,2062580
1710812505250,2063476
1710812505291,2064579
1710812505331,2066325
1710812505371,2068268
1710812505411,2070309
1710812505451,2072127
1710812505492,2073958
1710812505531,2073796
1710812505571,2069371
1710812505611,2064478
1710812505651,2060999
1710812505692,2059805
1710812505731,2060082
1710812505772,2061487
1710812505812,2062766
1710812505852,2063166
1710812505893,2062984
1710812505932,2062809
1710812505972,2063139
1710812506012,2064083
1710812506052,2065545
1710812506093,2067334
1710812506132,2069277
1710812506173,2071306
1710812506213,2073308
1710812506253,2074203
1710812506294,2069378
1710812506333,2062682
1710812506373,2057189
1710812506413,2054209
1710812506453,2052864
1710812506494,2053062
1710812506534,2053626
1710812506574,2053500
1710812506614,2052546
1710812506654,2051679
1710812506695,2051318
1710812506734,2051799
1710812506774,2052589
1710812506814,2054027
1710812506854,2055668
1710812506895,2057624
1710812506934,2059348
1710812506974,2060965
1710812507015,2060075
1710812507055,2053671
1710812507096,2046184
1710812507135,2040694
1710812507175,2037754
1710812507215,2036537
1710812507255,2036786
1710812507296,2037036
1710812507335,2036717
1710812507376,2035715
1710812507416,2034917
1710812507456,2034720
1710812507497,2035400
1710812507536,2036534
1710812507576,2038301
1710812507616,2040151
1710812507656,2042158
1710812507697,2044180
1710812507737,2046197
1710812507777,2048291
1710812507817,2047565
1710812507857,2041647
1710812507898,2034916
1710812507937,2030457
1710812507977,2028384
1710812508017,2028036
1710812508058,2028944
1710812508099,2029420
1710812508138,2029289
1710812508178,2028272
1710812508218,2027690
1710812508258,2027822
1710812508299,2028852
1710812508339,2030475
1710812508378,2032321
1710812508419,2034334
1710812508459,2036692
1710812508500,2038842
1710812508539,2040984
1710812508579,2043295
1710812508619,2044543
1710812508659,2040505
1710812508700,2034465
1710812508740,2030088
1710812508780,2028215
1710812508820,2028025
1710812508860,2029407
1710812508901,2030795
1710812508941,2031371
1710812508981,2031045
1710812509022,2030638
1710812509062,2031056
1710812509103,2032307
1710812509142,2033857
1710812509182,2036011
1710812509222,2038375
1710812509262,2040778
1710812509303,2043104
1710812509343,2045598
1710812509383,2047978
1710812509423,2049851
1710812509463,2046884
1710812509504,2041863
1710812509544,2037925
1710812509584,2036211
1710812509624,2036394
1710812509664,2037956
1710812509705,2040009
1710812509744,2041234
1710812509784,2041673
1710812509824,2041746
1710812509865,2042257
1710812509905,2043538
1710812509945,2045251
1710812509985,2047385
1710812510025,2049680
1710812510065,2052180
1710812510106,2054555
1710812510146,2057064
1710812510186,2059525
1710812510226,2060030
1710812510266,2056640
1710812510307,2052803
1710812510346,2050665
1710812510386,2050441
1710812510426,2053759
1710812510466,2055979
1710812510507,2057130
1710812510547,2057698
1710812510587,2058217
1710812510627,2059251
1710812510667,2060690
1710812510708,2062546
1710812510747,2064733
1710812510787,2066965
1710812510827,2069285
1710812510867,2071870
1710812510908,2073285
1710812510947,2070977
1710812510987,2067070
1710812511028,2064280
1710812511068,2063226
1710812511109,2063851
1710812511148,2065729
1710812511188,2067678
1710812511228,2068945
1710812511268,2069516
1710812511309,2069895
1710812511348,2070400
1710812511388,2071575
1710812511428,2073115
1710812511469,2075002
1710812511509,2076963
1710812511549,2079093
1710812511589,2081207
1710812511629,2080314
1710812511669,2075761
1710812511710,2071236
1710812511749,2068132
1710812511789,2067256
1710812511830,2067590
1710812511869,2069121
1710812511910,2070125
1710812511950,2070107
1710812511990,2069746
1710812512030,2069321
1710812512070,2069527
1710812512111,2070411
1710812512150,2071660
1710812512190,2073177
1710812512230,2074904
1710812512270,2076733
1710812512311,2077142
1710812512351,2072474
1710812512391,2066276
1710812512431,2061176
1710812512471,2058368
1710812512512,2057449
1710812512551,2057898
1710812512591,2058535
1710812512631,2058254
1710812512672,2057092
1710812512712,2056061
1710812512752,2055483
1710812512792,2055760
1710812512832,2056513
1710812512872,2057655
1710812512913,2059170
1710812512952,2060667
1710812512993,2062277
1710812513033,2061259
1710812513073,2054641
1710812513114,2047200
1710812513153,2041583
1710812513193,2038566
1710812513233,2037252
1710812513274,2037372
1710812513314,2037280
1710812513354,2036487
1710812513394,2034898
1710812513434,2033604
1710812513474,2033186
1710812513515,2033455
1710812513554,2034565
1710812513594,2036036
1710812513635,2037545
1710812513675,2039345
1710812513716,2041013
1710812513755,2042647
1710812513795,2039722
1710812513835,2032249
1710812513875,2024729
1710812513916,2019782
1710812513955,2017207
1710812513996,2016108
1710812514036,2016136
1710812514076,2016008
1710812514117,2014955
1710812514156,2013476
1710812514196,2012539
1710812514236,2012647
1710812514276,2013513
1710812514317,2014854
1710812514357,2016659
1710812514397,2018573
1710812514437,2020739
1710812514477,2022829
1710812514518,2024895
1710812514558,2027091
1710812514598,2028823
1710812514638,2025124
1710812514678,2018450
1710812514719,2012564
1710812514758,2009287
1710812514798,2007938
1710812514838,2007881
1710812514878,2008548
1710812514919,2008778
1710812514959,2008136
1710812514999,2007537
1710812515039,2007400
1710812515079,2008001
1710812515120,2009665
1710812515159,2011581
1710812515200,2013681
1710812515240,2016128
1710812515280,2018544
1710812515321,2020829
1710812515360,2023345
1710812515400,2025741
1710812515441,2028338
1710812515481,2029096
1710812515521,2025174
1710812515561,2019779
1710812515601,2016355
1710812515641,2015126
1710812515681,2015413
1710812515722,2016770
1710812515761,2018085
1710812515802,2018609
1710812515842,2018596
1710812515882,2018593
1710812515923,2019375
1710812515962,2020971
1710812516002,2022985
1710812516042,2025295
1710812516082,2027734
1710812516123,2030289
1710812516163,2032754
1710812516203,2035318
1710812516243,2037895
1710812516283,2040613
1710812516324,2043228
1710812516364,2042937
1710812516404,2039334
1710812516444,2035381
1710812516484,2033597
1710812516525,2033670
1710812516564,2034884
1710812516604,2036989
1710812516645,2038518
1710812516685,2039331
1710812516725,2039559
1710812516765,2040147
1710812516805,2041363
1710812516845,2043226
1710812516885,2045372
1710812516926,2047639
1710812516965,2050238
1710812517005,2052693
1710812517045,2055159
1710812517085,2057645
1710812517126,2060146
1710812517166,2062692
1710812517206,2063977
1710812517246,2061662
1710812517286,2058401
1710812517327,2056417
1710812517366,2056248
1710812517406,2057615
1710812517446,2059744
1710812517487,2061658
1710812517527,2063014
1710812517567,2063768
1710812517607,2064530
1710812517647,2065513
1710812517687,2067164
1710812517728,2069170
1710812517767,2071336
1710812517807,2073830
1710812517847,2076186
1710812517887,2078558
1710812517928,2080873
1710812517968,2083503
1710812518008,2085701
1710812518048,2085994
1710812518088,2083732
1710812518129,2081094
1710812518168,2080117
1710812518208,2080570
1710812518248,2082235
1710812518289,2084442
1710812518329,2086539
1710812518369,2087545
1710812518409,2088461
1710812518449,2089186
1710812518489,2090219
1710812518530,2091808
1710812518569,2093631
1710812518609,2095838
1710812518649,2097972
1710812518690,2100180
1710812518730,2102220
1710812518770,2104595
1710812518810,2105795
1710812518850,2104008
1710812518890,2100982
1710812518931,2098648
1710812518970,2097885
1710812519010,2098537
1710812519051,2100261
1710812519091,2102172
1710812519131,2103447
1710812519171,2104081
1710812519211,2104618
1710812519251,2105059
1710812519291,2106113
1710812519332,2107340
1710812519371,2109093
1710812519412,2110834
1710812519452,2112723
1710812519492,2114603
1710812519533,2116414
1710812519572,2116198
1710812519612,2112820
1710812519652,2108540
1710812519692,2105747
1710812519733,2104677
1710812519773,2105097
1710812519813,2106476
1710812519853,2107581
1710812519893,2107995
1710812519934,2107713
1710812519973,2107403
1710812520013,2107517
1710812520054,2108052
1710812520094,2109115
1710812520135,2110404
1710812520174,2111683
1710812520214,2113215
1710812520254,2114772
1710812520294,2113827
1710812520335,2108828
1710812520375,2103040
1710812520415,2098794
1710812520455,2096828
1710812520495,2096259
1710812520536,2096727
1710812520575,2097255
1710812520615,2096889
1710812520655,2095726
1710812520696,2094746
1710812520737,2094340
1710812520776,2094500
1710812520816,2095330
1710812520856,2096437
1710812520896,2097602
1710812520937,2098806
1710812520977,2100161
1710812521017,2098918
1710812521057,2092391
1710812521097,2084489
1710812521138,2078460
1710812521177,2074886
1710812521217,2073157
1710812521257,2072640
1710812521297,2072423
1710812521339,2071264
1710812521378,2069273
1710812521418,2067518
1710812521458,2066572
1710812521498,2066395
1710812521539,2066971
1710812521579,2067840
1710812521619,2068820
1710812521659,2070111
1710812521699,2071445
1710812521740,2072484
1710812521779,2068395
1710812521820,2060425
1710812521860,2052493
1710812521900,2047349
1710812521941,2044589
1710812521980,2043551
1710812522020,2043355
1710812522060,2042803
1710812522100,2041432
1710812522141,2039643
1710812522181,2038544
1710812522221,2038178
1710812522261,2038790
1710812522301,2039837
1710812522342,2041234
1710812522381,2042797
1710812522422,2044419
1710812522462,2046205
1710812522502,2047921
1710812522543,2048465
1710812522582,2043519
1710812522622,2036078
1710812522663,2029918
1710812522702,2026751
1710812522743,2025641
1710812522783,2026124
1710812522823,2026017
1710812522863,2024933
1710812522903,2024077
1710812522944,2023772
1710812522983,2024221
1710812523023,2025481
1710812523063,2027201
1710812523103,2029213
1710812523144,2031274
1710812523184,2033462
1710812523224,2035703
1710812523264,2038032
1710812523304,2040264
1710812523345,2038456
1710812523384,2032934
1710812523424,2027514
1710812523464,2024403
1710812523504,2023589
1710812523545,2024345
1710812523585,2025749
1710812523625,2026781
1710812523665,2026873
1710812523705,2026380
1710812523746,2026620
1710812523785,2027460
1710812523825,2028901
1710812523865,2030924
1710812523905,2033137
1710812523946,2035594
1710812523986,2038032
1710812524026,2040684
1710812524066,2043187
1710812524106,2045667
1710812524147,2046013
1710812524186,2042204
1710812524226,2037623
1710812524266,2034952
1710812524306,2034239
1710812524347,2035302
1710812524387,2037292
1710812524427,2038889
1710812524467,2040020
1710812524507,2040201
1710812524548,2040568
1710812524587,2041539
1710812524627,2043126
1710812524668,2045197
1710812524708,2047507
1710812524748,2050106
1710812524788,2052658
1710812524828,2055265
1710812524868,2057719
1710812524908,2060388
1710812524949,2061286
1710812524988,2058355
1710812525028,2054883
1710812525069,2052781
