time,ecg
1710812342013,-51
1710812342020,29
1710812342028,63
1710812342036,29
1710812342043,51
1710812342051,73
1710812342059,58
1710812342065,61
1710812342073,93
1710812342081,105
1710812342089,93
1710812342097,93
1710812342105,110
1710812342112,125
1710812342120,134
1710812342128,139
1710812342135,139
1710812342143,144
1710812342151,157
1710812342158,171
1710812342166,174
1710812342174,174
1710812342181,196
1710812342189,203
1710812342197,184
1710812342205,179
1710812342212,179
1710812342220,149
1710812342228,112
1710812342235,100
1710812342243,90
1710812342251,66
1710812342257,46
1710812342265,39
1710812342273,34
1710812342281,41
1710812342289,53
1710812342297,44
1710812342304,34
1710812342312,46
1710812342320,61
1710812342327,66
1710812342335,58
1710812342343,58
1710812342350,68
1710812342358,76
1710812342366,78
1710812342373,83
1710812342381,85
1710812342389,93
1710812342396,98
1710812342404,83
1710812342412,73
1710812342419,85
1710812342427,76
1710812342435,61
1710812342441,71
1710812342449,73
1710812342457,58
1710812342465,71
1710812342473,83
1710812342481,68
1710812342489,63
1710812342496,66
1710812342504,63
1710812342512,63
1710812342519,63
1710812342527,61
1710812342535,73
1710812342542,93
1710812342550,103
1710812342558,95
1710812342565,66
1710812342573,49
1710812342581,53
1710812342588,61
1710812342596,66
1710812342604,66
1710812342611,56
1710812342619,56
1710812342627,73
1710812342633,117
1710812342641,240
1710812342649,500
1710812342657,738
1710812342665,620
1710812342673,93
1710812342680,-345
1710812342688,-250
1710812342696,-17
1710812342703,-44
1710812342711,-44
1710812342719,49
1710812342726,41
1710812342734,9
1710812342742,29
1710812342750,41
1710812342757,39
1710812342765,44
1710812342773,56
1710812342780,63
1710812342788,68
1710812342796,76
1710812342803,85
1710812342811,100
1710812342819,112
1710812342825,122
1710812342833,137
1710812342841,152
1710812342849,159
1710812342857,176
1710812342865,196
1710812342872,201
1710812342880,191
1710812342888,184
1710812342895,179
1710812342903,176
1710812342911,157
1710812342918,122
1710812342926,100
1710812342934,76
1710812342941,41
1710812342949,14
1710812342957,12
1710812342964,9
1710812342972,-4
1710812342980,-12
1710812342987,-7
1710812342995,-2
1710812343003,-7
1710812343009,0
1710812343017,12
1710812343025,19
1710812343033,19
1710812343041,24
1710812343049,34
1710812343057,41
1710812343064,39
1710812343072,49
1710812343080,63
1710812343087,61
1710812343095,51
1710812343103,61
1710812343110,73
1710812343118,66
1710812343126,66
1710812343133,71
1710812343141,61
1710812343149,51
1710812343156,56
1710812343164,61
1710812343172,51
1710812343179,46
1710812343187,53
1710812343195,56
1710812343201,61
1710812343209,63
1710812343217,61
1710812343225,56
1710812343233,51
1710812343241,49
1710812343248,53
1710812343256,66
1710812343264,83
1710812343271,90
1710812343279,71
1710812343287,41
1710812343295,31
1710812343302,39
1710812343310,39
1710812343318,39
1710812343325,44
1710812343333,46
1710812343341,44
1710812343348,56
1710812343356,130
1710812343364,321
1710812343371,608
1710812343379,758
1710812343387,476
1710812343393,-127
1710812343401,-422
1710812343409,-198
1710812343417,-34
1710812343425,-71
1710812343433,-22
1710812343440,34
1710812343448,2
1710812343456,-4
1710812343463,26
1710812343471,31
1710812343479,26
1710812343486,36
1710812343494,46
1710812343502,51
1710812343509,58
1710812343517,66
1710812343525,76
1710812343533,90
1710812343540,103
1710812343548,112
1710812343556,127
1710812343563,147
1710812343571,152
1710812343579,159
1710812343585,179
1710812343593,191
1710812343601,181
1710812343609,171
1710812343617,169
1710812343625,159
1710812343632,134
1710812343640,107
1710812343648,73
1710812343655,44
1710812343663,26
1710812343671,12
1710812343678,0
1710812343686,-4
1710812343694,-7
1710812343701,-4
1710812343709,0
1710812343717,0
1710812343724,0
1710812343732,2
1710812343740,12
1710812343747,17
1710812343755,19
1710812343763,22
1710812343769,29
1710812343777,31
1710812343785,31
1710812343793,36
1710812343801,44
1710812343809,49
1710812343817,56
1710812343824,63
1710812343832,63
1710812343840,63
1710812343847,63
1710812343855,66
1710812343863,66
1710812343870,63
1710812343878,61
1710812343886,63
1710812343893,66
1710812343901,58
1710812343909,56
1710812343916,61
1710812343924,61
1710812343932,61
1710812343939,63
1710812343947,66
1710812343955,66
1710812343961,56
1710812343969,41
1710812343977,41
1710812343985,49
1710812343993,56
1710812344001,63
1710812344008,78
1710812344016,93
1710812344024,95
1710812344031,80
1710812344039,53
1710812344047,46
1710812344054,49
1710812344062,53
1710812344070,53
1710812344078,53
1710812344085,53
1710812344093,53
1710812344101,80
1710812344108,184
1710812344116,419
1710812344124,714
1710812344131,777
1710812344139,360
1710812344147,-264
1710812344153,-434
1710812344161,-157
1710812344169,-26
1710812344177,-51
1710812344185,2
1710812344193,34
1710812344200,17
1710812344208,31
1710812344216,49
1710812344223,44
1710812344231,49
1710812344239,66
1710812344246,73
1710812344254,78
1710812344262,88
1710812344269,93
1710812344277,100
1710812344285,112
1710812344292,122
1710812344300,132
1710812344308,142
1710812344315,152
1710812344323,159
1710812344331,171
1710812344337,191
1710812344345,201
1710812344353,193
1710812344361,188
1710812344369,186
1710812344377,179
1710812344385,157
1710812344392,130
1710812344400,103
1710812344408,71
1710812344415,51
1710812344423,39
1710812344431,29
1710812344438,19
1710812344446,17
1710812344454,19
1710812344461,19
1710812344469,19
1710812344477,22
1710812344484,29
1710812344492,34
1710812344500,31
1710812344507,31
1710812344515,41
1710812344523,51
1710812344529,56
1710812344537,58
1710812344545,61
1710812344553,66
1710812344561,73
1710812344569,76
1710812344576,78
1710812344584,78
1710812344592,73
1710812344599,68
1710812344607,73
1710812344615,68
1710812344622,61
1710812344630,61
1710812344638,63
1710812344646,63
1710812344653,61
1710812344661,53
1710812344669,51
1710812344676,53
1710812344684,49
1710812344692,44
1710812344699,51
1710812344707,56
1710812344715,51
1710812344721,53
1710812344729,58
1710812344737,58
1710812344745,66
1710812344753,66
1710812344761,63
1710812344768,58
1710812344776,61
1710812344784,66
1710812344791,78
1710812344799,88
1710812344807,98
1710812344814,95
1710812344822,71
1710812344830,49
1710812344837,51
1710812344845,61
1710812344853,63
1710812344860,58
1710812344868,53
1710812344876,56
1710812344883,66
1710812344891,112
1710812344899,262
1710812344907,547
1710812344913,790
1710812344921,660
1710812344929,85
1710812344937,-392
1710812344945,-284
1710812344953,-12
1710812344960,-7
1710812344968,-7
1710812344976,58
1710812344983,51
1710812344991,41
1710812344999,66
1710812345006,76
1710812345014,73
1710812345022,83
1710812345029,90
1710812345037,93
1710812345045,90
1710812345052,95
1710812345060,107
1710812345068,112
1710812345075,112
1710812345083,125
1710812345091,142
1710812345097,149
1710812345105,157
1710812345113,174
1710812345121,191
1710812345129,201
1710812345137,208
1710812345144,208
1710812345152,203
1710812345160,191
1710812345168,171
1710812345175,149
1710812345183,120
1710812345191,80
1710812345198,44
1710812345206,24
1710812345214,9
1710812345221,-4
1710812345229,-12
1710812345237,-9
1710812345244,-4
1710812345252,0
1710812345260,2
1710812345267,9
1710812345275,19
1710812345283,22
1710812345289,24
1710812345297,34
1710812345305,39
1710812345313,39
1710812345321,41
1710812345329,46
1710812345336,49
1710812345344,51
1710812345352,58
1710812345359,63
1710812345367,63
1710812345375,61
1710812345382,58
1710812345390,61
1710812345398,61
1710812345405,56
1710812345413,51
1710812345421,56
1710812345429,58
1710812345436,58
1710812345444,58
1710812345452,58
1710812345459,56
1710812345467,58
1710812345475,61
1710812345481,61
1710812345489,58
1710812345497,58
1710812345505,56
1710812345513,56
1710812345521,56
1710812345528,61
1710812345536,66
1710812345544,68
1710812345551,68
1710812345559,63
1710812345567,61
1710812345574,61
1710812345582,56
1710812345590,58
1710812345597,76
1710812345605,88
1710812345613,98
1710812345620,105
1710812345628,90
1710812345636,68
1710812345643,61
1710812345651,71
1710812345659,76
1710812345665,68
1710812345673,63
1710812345681,68
1710812345689,73
1710812345697,100
1710812345705,223
1710812345713,488
1710812345720,748
1710812345728,674
1710812345736,132
1710812345743,-404
1710812345751,-345
1710812345759,-36
1710812345766,-7
1710812345774,-24
1710812345782,53
1710812345789,56
1710812345797,34
1710812345805,63
1710812345812,83
1710812345820,76
1710812345828,83
1710812345835,95
1710812345843,95
1710812345851,100
1710812345857,112
1710812345865,122
1710812345873,127
1710812345881,132
1710812345889,139
1710812345897,152
1710812345904,166
1710812345912,176
1710812345920,186
1710812345927,198
1710812345935,211
1710812345943,215
1710812345951,213
1710812345958,213
1710812345966,208
1710812345974,184
1710812345981,157
1710812345989,137
1710812345997,110
1710812346004,76
1710812346012,51
1710812346020,36
1710812346027,24
1710812346035,22
1710812346043,19
1710812346049,19
1710812346057,19
1710812346065,22
1710812346073,26
1710812346081,31
1710812346089,36
1710812346096,41
1710812346104,44
1710812346112,49
1710812346119,49
1710812346127,49
1710812346135,51
1710812346142,61
1710812346150,63
1710812346158,63
1710812346165,63
1710812346173,56
1710812346181,51
1710812346188,53
1710812346196,46
1710812346204,41
1710812346211,41
1710812346219,44
1710812346227,49
1710812346235,51
1710812346241,49
1710812346249,49
1710812346257,56
1710812346265,53
1710812346273,46
1710812346281,44
1710812346288,51
1710812346296,49
1710812346304,44
1710812346311,44
1710812346319,51
1710812346327,56
1710812346334,53
1710812346342,58
1710812346350,66
1710812346357,68
1710812346365,68
1710812346373,73
1710812346380,71
1710812346388,61
1710812346396,63
1710812346403,80
1710812346411,95
1710812346419,107
1710812346425,115
1710812346433,112
1710812346441,90
1710812346449,66
1710812346457,63
1710812346465,76
1710812346472,78
1710812346480,73
1710812346488,68
1710812346496,71
1710812346503,83
1710812346511,137
1710812346519,304
1710812346526,586
1710812346534,775
1710812346542,556
1710812346549,-56
1710812346557,-449
1710812346565,-230
1710812346572,29
1710812346580,4
1710812346588,26
1710812346595,95
1710812346603,76
1710812346611,66
1710812346617,95
1710812346625,95
1710812346633,93
1710812346641,103
1710812346649,112
1710812346657,110
1710812346664,107
1710812346672,103
1710812346680,103
1710812346687,103
1710812346695,115
1710812346703,127
1710812346710,134
1710812346718,144
1710812346726,154
1710812346733,171
1710812346741,186
1710812346749,193
1710812346757,193
1710812346764,196
1710812346772,196
1710812346780,184
1710812346787,166
1710812346795,147
1710812346803,120
1710812346809,85
1710812346817,56
1710812346825,39
1710812346833,24
1710812346841,7
1710812346849,-2
1710812346856,0
1710812346864,4
1710812346872,4
1710812346879,12
1710812346887,22
1710812346895,19
1710812346902,19
1710812346910,29
1710812346918,31
1710812346925,29
1710812346933,26
1710812346941,31
1710812346948,39
1710812346956,46
1710812346964,46
1710812346971,46
1710812346979,51
1710812346987,53
1710812346993,51
1710812347001,51
1710812347009,53
1710812347017,49
1710812347025,39
1710812347033,41
1710812347041,49
1710812347048,49
1710812347056,46
1710812347064,51
1710812347071,56
1710812347079,56
1710812347087,53
1710812347094,56
1710812347102,58
1710812347110,58
1710812347117,56
1710812347125,61
1710812347133,66
1710812347140,68
1710812347148,68
1710812347156,73
1710812347163,71
1710812347171,61
1710812347179,49
1710812347185,46
1710812347193,56
1710812347201,66
1710812347209,68
1710812347217,80
1710812347225,88
1710812347232,68
1710812347240,44
1710812347248,49
1710812347255,58
1710812347263,56
1710812347271,61
1710812347278,71
1710812347286,71
1710812347294,76
1710812347302,130
1710812347309,291
1710812347317,561
1710812347325,743
1710812347332,534
1710812347340,-61
1710812347348,-446
1710812347355,-238
1710812347363,17
1710812347371,-4
1710812347377,12
1710812347385,80
1710812347393,61
1710812347401,51
1710812347409,83
1710812347417,93
1710812347424,83
1710812347432,85
1710812347440,88
1710812347447,80
1710812347455,85
1710812347463,98
1710812347470,98
1710812347478,98
1710812347486,107
1710812347493,122
1710812347501,130
1710812347509,144
1710812347516,164
1710812347524,174
1710812347532,179
1710812347539,186
1710812347547,191
1710812347555,186
1710812347561,171
1710812347569,161
1710812347577,154
1710812347585,130
1710812347593,103
1710812347601,83
1710812347609,61
1710812347616,46
1710812347624,41
1710812347632,31
1710812347639,17
1710812347647,12
1710812347655,12
1710812347662,9
1710812347670,4
1710812347678,7
1710812347685,7
1710812347693,2
1710812347701,7
1710812347708,14
1710812347716,17
1710812347724,24
1710812347731,34
1710812347739,34
1710812347747,34
1710812347753,39
1710812347761,39
1710812347769,34
1710812347777,36
1710812347785,46
1710812347793,46
1710812347800,41
1710812347808,41
1710812347816,49
1710812347823,49
1710812347831,46
1710812347839,53
1710812347847,53
1710812347854,53
1710812347862,56
1710812347870,58
1710812347877,63
1710812347885,61
1710812347893,56
1710812347900,61
1710812347908,66
1710812347916,58
1710812347923,51
1710812347931,51
1710812347939,58
1710812347945,58
1710812347953,56
1710812347961,61
1710812347969,76
1710812347977,90
1710812347985,98
1710812347992,83
1710812348000,51
1710812348008,41
1710812348015,61
1710812348023,68
1710812348031,66
1710812348038,71
1710812348046,73
1710812348054,73
1710812348061,93
1710812348069,176
1710812348077,385
1710812348084,657
1710812348092,716
1710812348100,331
1710812348107,-230
1710812348115,-338
1710812348123,-53
1710812348131,22
1710812348137,-34
1710812348145,44
1710812348153,85
1710812348161,51
1710812348169,58
1710812348177,78
1710812348184,76
1710812348192,73
1710812348200,66
1710812348207,68
1710812348215,83
1710812348223,95
1710812348230,98
1710812348238,103
1710812348246,112
1710812348253,115
1710812348261,120
1710812348269,130
1710812348276,137
1710812348284,147
1710812348292,166
1710812348299,181
1710812348307,179
1710812348315,174
1710812348321,174
1710812348329,171
1710812348337,159
1710812348345,137
1710812348353,117
1710812348361,100
1710812348368,78
1710812348376,58
1710812348384,49
1710812348392,41
1710812348399,31
1710812348407,24
1710812348415,22
1710812348422,19
1710812348430,12
1710812348438,9
1710812348445,14
1710812348453,17
1710812348461,19
1710812348468,29
1710812348476,34
1710812348484,39
1710812348491,49
1710812348499,51
1710812348507,49
1710812348513,46
1710812348521,44
1710812348529,41
1710812348537,44
1710812348545,49
1710812348553,46
1710812348560,41
1710812348568,49
1710812348576,56
1710812348583,58
1710812348591,56
1710812348599,51
1710812348606,44
1710812348614,39
1710812348622,41
1710812348629,49
1710812348637,51
1710812348645,46
1710812348653,44
1710812348660,44
1710812348668,51
1710812348676,53
1710812348683,58
1710812348691,61
1710812348699,53
1710812348705,51
1710812348713,63
1710812348721,71
1710812348729,73
1710812348737,88
1710812348745,100
1710812348752,80
1710812348760,51
1710812348768,41
1710812348775,53
1710812348783,63
1710812348791,61
1710812348798,49
1710812348806,51
1710812348814,61
1710812348821,83
1710812348829,191
1710812348837,446
1710812348844,701
1710812348852,652
1710812348860,171
1710812348867,-314
1710812348875,-260
1710812348883,0
1710812348889,-14
1710812348897,-44
1710812348905,46
1710812348913,58
1710812348921,34
1710812348929,56
1710812348937,68
1710812348944,68
1710812348952,83
1710812348960,85
1710812348967,80
1710812348975,80
1710812348983,90
1710812348990,103
1710812348998,110
1710812349006,112
1710812349013,125
1710812349021,137
1710812349029,142
1710812349036,152
1710812349044,161
1710812349052,174
1710812349059,181
1710812349067,186
1710812349075,181
1710812349081,174
1710812349089,159
1710812349097,144
1710812349105,127
1710812349113,107
1710812349121,88
1710812349128,71
1710812349136,44
1710812349144,24
1710812349151,14
1710812349159,4
1710812349167,0
1710812349174,0
1710812349182,2
1710812349190,2
1710812349198,14
1710812349205,24
1710812349213,14
1710812349221,9
1710812349228,26
1710812349236,36
1710812349244,29
1710812349251,31
1710812349259,31
1710812349267,36
1710812349273,49
1710812349281,51
1710812349289,44
1710812349297,41
1710812349305,51
1710812349313,58
1710812349320,49
1710812349328,34
1710812349336,34
1710812349343,44
1710812349351,44
1710812349359,46
1710812349366,39
1710812349374,36
1710812349382,46
1710812349389,49
1710812349397,44
1710812349405,49
1710812349412,56
1710812349420,53
1710812349428,51
1710812349435,56
1710812349443,56
1710812349451,53
1710812349457,61
1710812349465,71
1710812349473,78
1710812349481,80
1710812349489,93
1710812349497,110
1710812349505,80
1710812349512,39
1710812349520,41
1710812349528,46
1710812349535,49
1710812349543,63
1710812349551,61
1710812349558,51
1710812349566,66
1710812349574,115
1710812349581,245
1710812349589,500
1710812349597,738
1710812349604,650
1710812349612,142
1710812349620,-314
1710812349627,-220
1710812349635,14
1710812349643,-22
1710812349649,-36
1710812349657,51
1710812349665,34
1710812349673,7
1710812349681,51
1710812349689,58
1710812349696,46
1710812349704,68
1710812349712,68
1710812349719,46
1710812349727,51
1710812349735,66
1710812349743,76
1710812349750,85
1710812349758,95
1710812349766,103
1710812349773,110
1710812349781,125
1710812349789,139
1710812349796,152
1710812349804,154
1710812349812,161
1710812349819,176
1710812349827,179
1710812349835,169
1710812349841,159
1710812349849,149
1710812349857,130
1710812349865,100
1710812349873,71
1710812349881,34
1710812349888,7
1710812349896,-2
1710812349904,-17
1710812349911,-14
1710812349919,0
1710812349927,-4
1710812349934,-12
1710812349942,-2
1710812349950,9
1710812349957,2
1710812349965,2
1710812349973,22
1710812349980,34
1710812349988,22
1710812349996,17
1710812350003,34
1710812350011,51
1710812350019,51
1710812350027,51
1710812350033,53
1710812350041,51
1710812350049,44
1710812350057,41
1710812350065,39
1710812350073,29
1710812350080,24
1710812350088,29
1710812350096,31
1710812350103,24
1710812350111,24
1710812350119,31
1710812350126,26
1710812350134,22
1710812350142,24
1710812350149,22
1710812350157,17
1710812350165,22
1710812350172,19
1710812350180,17
1710812350188,31
1710812350195,34
1710812350203,26
1710812350211,39
1710812350217,56
1710812350225,53
1710812350233,31
1710812350241,19
1710812350249,9
1710812350257,-14
1710812350264,-12
1710812350272,24
1710812350280,36
1710812350288,19
1710812350295,17
1710812350303,24
1710812350311,63
1710812350318,191
1710812350326,434
1710812350334,694
1710812350341,689
1710812350349,235
1710812350357,-296
1710812350364,-309
1710812350372,-39
1710812350380,-41
1710812350387,-88
1710812350395,17
1710812350403,31
1710812350409,-14
1710812350417,17
1710812350425,51
1710812350433,36
1710812350441,31
1710812350449,49
1710812350456,53
1710812350464,56
1710812350472,66
1710812350479,80
1710812350487,88
1710812350495,93
1710812350502,110
1710812350510,127
1710812350518,132
1710812350525,139
1710812350533,154
1710812350541,164
1710812350549,171
1710812350556,179
1710812350564,186
1710812350572,184
1710812350579,171
1710812350587,152
1710812350595,125
1710812350601,100
1710812350609,83
1710812350617,51
1710812350625,19
1710812350633,12
1710812350641,12
1710812350648,2
1710812350656,-4
1710812350664,-2
1710812350671,0
1710812350679,2
1710812350687,2
1710812350694,7
1710812350702,17
1710812350710,24
1710812350717,14
1710812350725,7
1710812350733,17
1710812350740,34
1710812350748,36
1710812350756,36
1710812350763,44
1710812350771,34
1710812350779,17
1710812350785,29
1710812350793,39
1710812350801,29
1710812350809,26
1710812350817,36
1710812350825,36
1710812350833,34
1710812350840,36
1710812350848,34
1710812350856,29
1710812350863,26
1710812350871,24
1710812350879,24
1710812350886,29
1710812350894,26
1710812350902,24
1710812350909,34
1710812350917,41
1710812350925,39
1710812350932,39
1710812350940,39
1710812350948,34
1710812350955,34
1710812350963,51
1710812350971,66
1710812350977,78
1710812350985,80
1710812350993,61
1710812351001,34
1710812351009,31
1710812351017,46
1710812351024,53
1710812351032,49
1710812351040,49
1710812351047,51
1710812351055,61
1710812351063,100
1710812351070,225
1710812351078,483
1710812351086,745
1710812351094,704
1710812351101,211
1710812351109,-321
1710812351117,-318
1710812351124,-56
1710812351132,-39
1710812351140,-61
1710812351147,22
1710812351155,34
1710812351163,9
1710812351169,31
1710812351177,44
1710812351185,44
1710812351193,53
1710812351201,61
1710812351209,68
1710812351216,76
1710812351224,68
1710812351232,68
1710812351239,85
1710812351247,100
1710812351255,105
1710812351262,120
1710812351270,137
1710812351278,152
1710812351285,161
1710812351293,171
1710812351301,184
1710812351308,186
1710812351316,181
1710812351324,179
1710812351331,176
1710812351339,152
1710812351347,120
1710812351353,93
1710812351361,63
1710812351369,26
1710812351377,2
1710812351385,-9
1710812351393,-22
1710812351401,-36
1710812351408,-39
1710812351416,-29
1710812351424,-24
1710812351431,-31
1710812351439,-34
1710812351447,-24
1710812351454,-17
1710812351462,-12
1710812351470,-2
1710812351477,4
1710812351485,9
1710812351493,7
1710812351500,9
1710812351508,22
1710812351516,29
1710812351523,29
1710812351531,36
1710812351539,41
1710812351545,36
1710812351553,41
1710812351561,49
1710812351569,53
1710812351577,53
1710812351585,49
1710812351592,41
1710812351600,41
1710812351608,39
1710812351615,36
1710812351623,36
1710812351631,34
1710812351639,31
1710812351646,34
1710812351654,31
1710812351662,34
1710812351669,34
1710812351677,29
1710812351685,26
1710812351692,34
1710812351700,39
1710812351708,44
1710812351715,46
1710812351723,41
1710812351731,29
1710812351737,26
1710812351745,39
1710812351753,49
1710812351761,56
1710812351769,71
1710812351777,88
1710812351784,90
1710812351792,73
1710812351800,51
1710812351807,46
1710812351815,53
1710812351823,58
1710812351830,61
1710812351838,66
1710812351846,63
1710812351853,63
1710812351861,98
1710812351869,215
1710812351876,466
1710812351884,733
1710812351892,731
1710812351899,272
1710812351907,-299
1710812351915,-370
1710812351923,-88
1710812351929,-7
1710812351937,-24
1710812351945,36
1710812351953,51
1710812351961,34
1710812351969,56
1710812351976,71
1710812351984,71
1710812351992,80
1710812351999,90
1710812352007,90
1710812352015,98
1710812352022,105
1710812352030,105
1710812352038,103
1710812352045,115
1710812352053,130
1710812352061,137
1710812352068,147
1710812352076,161
1710812352084,179
1710812352091,188
1710812352099,198
1710812352107,203
1710812352113,208
1710812352121,206
1710812352129,201
1710812352137,191
1710812352145,171
1710812352153,147
1710812352160,122
1710812352168,93
1710812352176,68
1710812352184,49
1710812352191,31
1710812352199,19
1710812352207,17
1710812352214,14
1710812352222,9
1710812352230,7
1710812352237,0
1710812352245,0
1710812352253,14
1710812352260,24
1710812352268,26
1710812352276,31
1710812352283,41
1710812352291,49
1710812352299,51
1710812352305,58
1710812352313,66
1710812352321,66
1710812352329,71
1710812352337,73
1710812352345,73
1710812352352,71
1710812352360,71
1710812352368,68
1710812352375,63
1710812352383,61
1710812352391,53
1710812352398,49
1710812352406,51
1710812352414,51
1710812352421,44
1710812352429,44
1710812352437,49
1710812352444,53
1710812352452,56
1710812352460,56
1710812352468,58
1710812352475,61
1710812352483,63
1710812352491,66
1710812352497,71
1710812352505,76
1710812352513,73
1710812352521,76
1710812352529,80
1710812352537,80
1710812352544,80
1710812352552,85
1710812352560,85
1710812352567,78
1710812352575,66
1710812352583,63
1710812352590,73
1710812352598,80
1710812352606,85
1710812352613,105
1710812352621,122
1710812352629,112
1710812352636,88
1710812352644,76
1710812352652,80
1710812352659,85
1710812352667,88
1710812352675,93
1710812352681,95
1710812352689,93
1710812352697,103
1710812352705,164
1710812352713,338
1710812352721,635
1710812352729,844
1710812352736,640
1710812352744,24
1710812352752,-404
1710812352759,-235
1710812352767,9
1710812352775,0
1710812352782,12
1710812352790,66
1710812352798,56
1710812352805,53
1710812352813,80
1710812352821,88
1710812352828,85
1710812352836,95
1710812352844,98
1710812352851,103
1710812352859,115
1710812352867,120
1710812352873,120
1710812352881,127
1710812352889,142
1710812352897,149
1710812352905,159
1710812352913,169
1710812352920,179
1710812352928,186
1710812352936,193
1710812352943,201
1710812352951,206
1710812352959,208
1710812352967,201
1710812352974,196
1710812352982,184
1710812352990,159
1710812352997,127
1710812353005,100
1710812353013,76
1710812353020,49
1710812353028,36
1710812353036,31
1710812353043,24
1710812353051,19
1710812353059,22
1710812353065,24
1710812353073,31
1710812353081,34
1710812353089,34
1710812353097,39
1710812353105,44
1710812353112,36
1710812353120,31
1710812353128,39
1710812353135,44
1710812353143,41
1710812353151,44
1710812353158,51
1710812353166,53
1710812353174,53
1710812353181,58
1710812353189,63
1710812353197,63
1710812353204,63
1710812353212,66
1710812353220,66
1710812353227,68
1710812353235,71
1710812353243,68
1710812353251,61
1710812353257,53
1710812353265,56
1710812353273,61
1710812353281,61
1710812353289,58
1710812353297,56
1710812353304,58
1710812353312,66
1710812353320,68
1710812353327,68
1710812353335,63
1710812353343,63
1710812353350,71
1710812353358,73
1710812353366,73
1710812353373,78
1710812353381,80
1710812353389,78
1710812353396,80
1710812353404,88
1710812353412,88
1710812353419,90
1710812353427,90
1710812353435,83
1710812353441,78
1710812353449,83
1710812353457,95
1710812353465,103
1710812353473,107
1710812353481,117
1710812353488,122
1710812353496,100
1710812353504,76
1710812353512,78
1710812353519,90
1710812353527,88
1710812353535,78
1710812353542,80
1710812353550,88
1710812353558,98
1710812353565,159
1710812353573,338
1710812353581,625
1710812353588,799
1710812353596,559
1710812353604,-51
1710812353611,-417
1710812353619,-196
1710812353627,34
1710812353633,2
1710812353641,24
1710812353649,83
1710812353657,58
1710812353665,51
1710812353673,83
1710812353680,85
1710812353688,80
1710812353696,93
1710812353703,100
1710812353711,98
1710812353719,105
1710812353726,120
1710812353734,122
1710812353742,122
1710812353749,125
1710812353757,122
1710812353765,127
1710812353772,144
1710812353780,154
1710812353788,169
1710812353796,186
1710812353803,193
1710812353811,198
1710812353819,201
1710812353825,188
1710812353833,171
1710812353841,159
1710812353849,142
1710812353857,110
1710812353865,80
1710812353872,56
1710812353880,34
1710812353888,17
1710812353895,7
1710812353903,4
1710812353911,7
1710812353918,9
1710812353926,9
1710812353934,14
1710812353941,24
1710812353949,29
1710812353957,31
1710812353964,39
1710812353972,44
1710812353980,51
1710812353987,53
1710812353995,53
1710812354003,58
1710812354009,58
1710812354017,53
1710812354025,58
1710812354033,66
1710812354041,63
1710812354049,68
1710812354057,73
1710812354064,73
1710812354072,68
1710812354080,68
1710812354087,71
1710812354095,71
1710812354103,71
1710812354110,73
1710812354118,76
1710812354126,71
1710812354133,66
1710812354141,66
1710812354149,71
1710812354156,73
1710812354164,71
1710812354172,71
1710812354179,73
1710812354187,71
1710812354195,68
1710812354201,73
1710812354209,73
1710812354217,73
1710812354225,76
1710812354233,80
1710812354241,83
1710812354248,85
1710812354256,80
1710812354264,71
1710812354271,76
1710812354279,83
1710812354287,80
1710812354294,78
1710812354302,78
1710812354310,76
1710812354318,83
1710812354325,98
1710812354333,112
1710812354341,125
1710812354348,125
1710812354356,98
1710812354364,73
1710812354371,73
1710812354379,78
1710812354387,80
1710812354393,85
1710812354401,83
1710812354409,80
1710812354417,103
1710812354425,176
1710812354433,365
1710812354440,655
1710812354448,787
1710812354456,463
1710812354463,-174
1710812354471,-434
1710812354479,-134
1710812354486,51
1710812354494,0
1710812354502,44
1710812354509,100
1710812354517,73
1710812354525,76
1710812354532,100
1710812354540,98
1710812354548,93
1710812354555,98
1710812354563,103
1710812354571,105
1710812354577,112
1710812354585,115
1710812354593,120
1710812354601,130
1710812354609,134
1710812354617,139
1710812354625,147
1710812354632,154
1710812354640,164
1710812354648,179
1710812354655,191
1710812354663,201
1710812354671,203
1710812354678,203
1710812354686,201
1710812354694,188
1710812354701,161
1710812354709,137
1710812354717,117
1710812354724,90
1710812354732,61
1710812354740,39
1710812354747,34
1710812354755,29
1710812354763,12
1710812354769,0
1710812354777,4
1710812354785,14
1710812354793,14
1710812354801,22
1710812354809,31
1710812354816,29
1710812354824,34
1710812354832,44
1710812354839,53
1710812354847,61
1710812354855,61
1710812354863,58
1710812354870,68
1710812354878,76
1710812354886,73
1710812354893,73
1710812354901,78
1710812354909,76
1710812354916,68
1710812354924,73
1710812354932,78
1710812354939,68
1710812354947,66
1710812354955,78
1710812354961,85
1710812354969,80
1710812354977,76
1710812354985,85
1710812354993,85
1710812355001,80
1710812355008,83
1710812355016,90
1710812355024,93
1710812355031,93
1710812355039,90
1710812355047,90
1710812355054,90
1710812355062,88
1710812355070,88
1710812355077,93
1710812355085,90
1710812355093,83
1710812355100,83
1710812355108,90
1710812355116,93
1710812355123,93
1710812355131,95
1710812355139,95
1710812355147,90
1710812355153,88
1710812355161,90
1710812355169,103
1710812355177,115
1710812355185,122
1710812355193,134
1710812355200,139
1710812355208,117
1710812355216,93
1710812355223,90
1710812355231,95
1710812355239,88
1710812355246,85
1710812355254,85
1710812355262,85
1710812355269,88
1710812355277,142
1710812355285,331
1710812355292,625
1710812355300,770
1710812355308,473
1710812355315,-157
1710812355323,-456
1710812355331,-188
1710812355337,9
1710812355345,-29
1710812355353,14
1710812355361,66
1710812355369,34
1710812355377,39
1710812355384,71
1710812355392,71
1710812355400,73
1710812355408,88
1710812355415,85
1710812355423,78
1710812355431,85
1710812355438,98
1710812355446,103
1710812355454,98
1710812355461,98
1710812355469,112
1710812355477,130
1710812355484,137
1710812355492,149
1710812355500,166
1710812355507,174
1710812355515,181
1710812355523,188
1710812355529,191
1710812355537,188
1710812355545,176
1710812355553,157
1710812355561,137
1710812355569,120
1710812355576,95
1710812355584,71
1710812355592,49
1710812355599,34
1710812355607,22
1710812355615,19
1710812355622,22
1710812355630,19
1710812355638,14
1710812355645,19
1710812355653,29
1710812355661,31
1710812355668,31
1710812355676,41
1710812355684,49
1710812355692,49
1710812355699,51
1710812355707,61
1710812355715,66
1710812355721,68
1710812355729,71
1710812355737,73
1710812355745,78
1710812355753,78
1710812355761,73
1710812355768,66
1710812355776,53
1710812355784,41
1710812355791,39
1710812355799,39
1710812355807,36
1710812355814,34
1710812355822,36
1710812355830,39
1710812355837,39
1710812355845,34
1710812355853,39
1710812355860,46
1710812355868,46
1710812355876,46
1710812355883,53
1710812355891,58
1710812355899,56
1710812355905,56
1710812355913,61
1710812355921,66
1710812355929,66
1710812355937,66
1710812355945,71
1710812355953,78
1710812355960,76
1710812355968,68
1710812355976,71
1710812355983,73
1710812355991,68
1710812355999,73
1710812356006,88
1710812356014,103
1710812356022,110
1710812356029,100
1710812356037,66
1710812356045,44
1710812356052,56
1710812356060,71
1710812356068,73
1710812356075,68
1710812356083,66
1710812356091,73
1710812356097,117
1710812356105,250
1710812356113,498
1710812356121,709
1710812356129,591
1710812356137,44
1710812356144,-419
1710812356152,-282
1710812356160,9
1710812356167,0
1710812356175,-14
1710812356183,73
1710812356190,76
1710812356198,49
1710812356206,73
1710812356214,88
1710812356221,83
1710812356229,90
1710812356237,100
1710812356244,98
1710812356252,93
1710812356260,100
1710812356267,110
1710812356275,115
1710812356283,117
1710812356289,115
1710812356297,122
1710812356305,139
1710812356313,154
1710812356321,164
1710812356329,174
1710812356336,176
1710812356344,174
1710812356352,164
1710812356359,152
1710812356367,144
1710812356375,132
1710812356382,115
1710812356390,98
1710812356398,83
1710812356405,66
1710812356413,46
1710812356421,34
1710812356428,29
1710812356436,22
1710812356444,17
1710812356451,22
1710812356459,24
1710812356467,24
1710812356473,26
1710812356481,31
1710812356489,31
1710812356497,29
1710812356505,34
1710812356513,41
1710812356521,44
1710812356528,49
1710812356536,51
1710812356544,58
1710812356551,63
1710812356559,58
1710812356567,51
1710812356574,58
1710812356582,63
1710812356590,58
1710812356597,53
1710812356605,56
1710812356613,56
1710812356620,56
1710812356628,61
1710812356636,66
1710812356643,68
1710812356651,66
1710812356659,61
1710812356665,61
1710812356673,66
1710812356681,71
1710812356689,71
1710812356697,71
1710812356705,68
1710812356712,63
1710812356720,63
1710812356728,71
1710812356735,71
1710812356743,66
1710812356751,66
1710812356759,68
1710812356766,76
1710812356774,85
1710812356782,93
1710812356789,103
1710812356797,112
1710812356805,105
1710812356812,73
1710812356820,53
1710812356828,63
1710812356835,73
1710812356843,71
1710812356851,76
1710812356857,78
1710812356865,73
1710812356873,83
1710812356881,149
1710812356889,318
1710812356897,579
1710812356904,701
1710812356912,419
1710812356920,-147
1710812356927,-375
1710812356935,-122
1710812356943,17
1710812356950,-44
1710812356958,9
1710812356966,80
1710812356973,53
1710812356981,41
1710812356989,61
1710812356996,53
1710812357004,46
1710812357012,61
1710812357019,68
1710812357027,66
1710812357035,73
1710812357043,83
1710812357049,90
1710812357057,100
1710812357065,105
1710812357073,103
1710812357081,117
1710812357089,139
1710812357096,142
1710812357104,139
1710812357112,152
1710812357119,159
1710812357127,154
1710812357135,152
1710812357142,147
1710812357150,137
1710812357158,125
1710812357165,103
1710812357173,80
1710812357181,71
1710812357188,51
1710812357196,26
1710812357204,17
1710812357211,17
1710812357219,9
1710812357227,0
1710812357233,4
1710812357241,14
1710812357249,14
1710812357257,2
1710812357265,7
1710812357273,22
1710812357280,19
1710812357288,19
1710812357296,31
1710812357304,39
1710812357311,44
1710812357319,53
1710812357327,53
1710812357334,53
1710812357342,58
1710812357350,53
1710812357357,56
1710812357365,63
1710812357373,56
1710812357380,61
1710812357388,71
1710812357396,63
1710812357403,58
1710812357411,63
1710812357419,61
1710812357425,58
1710812357433,58
1710812357441,56
1710812357449,53
1710812357457,51
1710812357465,56
1710812357472,68
1710812357480,71
1710812357488,63
1710812357495,61
1710812357503,61
1710812357511,61
1710812357518,56
1710812357526,53
1710812357534,71
1710812357541,88
1710812357549,85
1710812357557,68
1710812357564,51
1710812357572,39
1710812357580,44
1710812357588,53
1710812357595,53
1710812357603,56
1710812357611,53
1710812357617,49
1710812357625,56
1710812357633,117
1710812357641,289
1710812357649,561
1710812357657,736
1710812357664,520
1710812357672,-41
1710812357680,-355
1710812357687,-142
1710812357695,29
1710812357703,-51
1710812357710,-9
1710812357718,85
1710812357726,51
1710812357733,36
1710812357741,80
1710812357749,80
1710812357756,66
1710812357764,73
1710812357772,78
1710812357779,80
1710812357787,88
1710812357795,88
1710812357801,88
1710812357809,98
1710812357817,110
1710812357825,112
1710812357833,125
1710812357841,144
1710812357849,154
1710812357856,161
1710812357864,169
1710812357872,174
1710812357879,176
1710812357887,186
1710812357895,184
1710812357902,161
1710812357910,142
1710812357918,125
1710812357925,105
1710812357933,93
1710812357941,71
1710812357948,36
1710812357956,22
1710812357964,24
1710812357971,22
1710812357979,7
1710812357987,-2
1710812357993,-7
1710812358001,-12
1710812358009,-9
1710812358017,-4
1710812358025,-7
1710812358033,2
1710812358040,17
1710812358048,22
1710812358056,19
1710812358063,12
1710812358071,12
1710812358079,24
1710812358086,22
1710812358094,17
1710812358102,31
1710812358110,36
1710812358117,34
1710812358125,36
1710812358133,39
1710812358140,44
1710812358148,44
1710812358156,41
1710812358163,49
1710812358171,49
1710812358179,36
1710812358185,34
1710812358193,41
1710812358201,41
1710812358209,44
1710812358217,53
1710812358225,61
1710812358232,63
1710812358240,61
1710812358248,63
1710812358255,61
1710812358263,61
1710812358271,88
1710812358278,110
1710812358286,100
1710812358294,80
1710812358301,58
1710812358309,46
1710812358317,53
1710812358324,66
1710812358332,53
1710812358340,41
1710812358347,58
1710812358355,76
1710812358363,80
1710812358369,139
1710812358377,336
1710812358385,630
1710812358393,772
1710812358401,495
1710812358409,-71
1710812358417,-328
1710812358424,-105
1710812358432,22
1710812358440,-39
1710812358447,19
1710812358455,85
1710812358463,53
1710812358470,51
1710812358478,76
1710812358486,83
1710812358493,83
1710812358501,73
1710812358509,61
1710812358516,71
1710812358524,95
1710812358532,103
1710812358539,98
1710812358547,105
1710812358555,125
1710812358561,137
1710812358569,137
1710812358577,144
1710812358585,159
1710812358593,176
1710812358601,181
1710812358608,176
1710812358616,184
1710812358624,191
1710812358631,181
1710812358639,154
1710812358647,125
1710812358655,110
1710812358662,98
1710812358670,61
1710812358678,22
1710812358685,12
1710812358693,14
1710812358701,9
1710812358708,7
1710812358716,12
1710812358724,9
1710812358731,14
1710812358739,22
1710812358747,14
1710812358753,12
1710812358761,22
1710812358769,31
1710812358777,39
1710812358785,49
1710812358793,56
1710812358800,58
1710812358808,56
1710812358816,53
1710812358823,56
1710812358831,61
1710812358839,56
1710812358846,41
1710812358854,39
1710812358862,49
1710812358869,49
1710812358877,44
1710812358885,53
1710812358892,53
1710812358900,49
1710812358908,44
1710812358915,41
1710812358923,53
1710812358931,68
1710812358939,61
1710812358945,51
1710812358953,68
1710812358961,68
1710812358969,56
1710812358977,68
1710812358985,78
1710812358992,68
1710812359000,83
1710812359008,93
1710812359015,85
1710812359023,88
1710812359031,66
1710812359038,31
1710812359046,36
1710812359054,56
1710812359061,56
1710812359069,63
1710812359077,66
1710812359084,58
1710812359092,78
1710812359100,130
1710812359107,242
1710812359115,493
1710812359123,767
1710812359129,721
1710812359137,228
1710812359145,-287
1710812359153,-264
1710812359161,7
1710812359169,4
1710812359176,-41
1710812359184,39
1710812359192,51
1710812359200,29
1710812359207,58
1710812359215,76
1710812359223,68
1710812359230,71
1710812359238,68
1710812359246,66
1710812359253,78
1710812359261,88
1710812359269,95
1710812359276,107
1710812359284,110
1710812359292,105
1710812359299,110
1710812359307,127
1710812359315,142
1710812359321,157
1710812359329,166
1710812359337,171
1710812359345,193
1710812359353,193
1710812359361,166
1710812359368,169
1710812359376,159
1710812359384,115
1710812359391,85
1710812359399,78
1710812359407,66
1710812359414,39
1710812359422,22
1710812359430,22
1710812359437,17
1710812359445,14
1710812359453,17
1710812359460,19
1710812359468,22
1710812359476,24
1710812359484,26
1710812359491,34
1710812359499,36
1710812359507,29
1710812359513,22
1710812359521,29
1710812359529,44
1710812359537,49
1710812359545,58
1710812359553,66
1710812359560,58
1710812359568,63
1710812359576,71
1710812359583,58
1710812359591,56
1710812359599,73
1710812359606,73
1710812359614,58
1710812359622,58
1710812359629,73
1710812359637,66
1710812359645,56
1710812359652,66
1710812359660,73
1710812359668,56
1710812359675,49
1710812359683,61
1710812359691,71
1710812359697,71
1710812359705,68
1710812359713,63
1710812359721,66
1710812359729,76
1710812359737,66
1710812359745,56
1710812359752,78
1710812359760,93
1710812359768,73
1710812359775,51
1710812359783,49
1710812359791,51
1710812359798,51
1710812359806,61
1710812359814,61
1710812359821,56
1710812359829,63
1710812359837,73
1710812359844,100
1710812359852,206
1710812359860,439
1710812359867,723
1710812359875,775
1710812359883,380
1710812359889,-186
1710812359897,-306
1710812359905,-44
1710812359913,14
1710812359921,-44
1710812359929,31
1710812359936,71
1710812359944,39
1710812359952,51
1710812359959,78
1710812359967,78
1710812359975,78
1710812359982,83
1710812359990,88
1710812359998,95
1710812360006,105
1710812360013,107
1710812360021,95
1710812360029,103
1710812360036,127
1710812360044,142
1710812360052,147
1710812360059,164
1710812360067,179
1710812360075,186
1710812360081,198
1710812360089,218
1710812360097,218
1710812360105,208
1710812360113,198
1710812360121,186
1710812360128,164
1710812360136,130
1710812360144,100
1710812360151,80
1710812360159,56
1710812360167,22
1710812360174,7
1710812360182,9
1710812360190,7
1710812360197,7
1710812360205,9
1710812360213,14
1710812360220,24
1710812360228,29
1710812360236,29
1710812360243,29
1710812360251,26
1710812360259,24
1710812360265,26
1710812360273,34
1710812360281,39
1710812360289,39
1710812360297,44
1710812360305,49
1710812360313,56
1710812360320,56
1710812360328,56
1710812360336,61
1710812360343,63
1710812360351,63
1710812360359,63
1710812360366,63
1710812360374,63
1710812360382,61
1710812360389,61
1710812360397,66
1710812360405,68
1710812360412,68
1710812360420,66
1710812360428,61
1710812360435,58
1710812360443,56
1710812360451,51
1710812360457,44
1710812360465,46
1710812360473,51
1710812360481,44
1710812360489,34
1710812360497,36
1710812360504,39
1710812360512,44
1710812360520,41
1710812360527,39
1710812360535,51
1710812360543,71
1710812360551,73
1710812360558,58
1710812360566,41
1710812360574,31
1710812360581,34
1710812360589,44
1710812360597,51
1710812360604,51
1710812360612,49
1710812360620,51
1710812360627,68
1710812360635,137
1710812360643,318
1710812360649,613
1710812360657,797
1710812360665,569
1710812360673,-19
1710812360681,-370
1710812360689,-188
1710812360696,-4
1710812360704,-39
1710812360712,-7
1710812360719,49
1710812360727,24
1710812360735,24
1710812360742,56
1710812360750,58
1710812360758,51
1710812360765,66
1710812360773,76
1710812360781,80
1710812360788,88
1710812360796,90
1710812360804,98
1710812360811,115
1710812360819,120
1710812360827,117
1710812360835,127
1710812360841,149
1710812360849,157
1710812360857,159
1710812360865,176
1710812360873,193
1710812360881,196
1710812360888,196
1710812360896,193
1710812360904,188
1710812360911,174
1710812360919,149
1710812360927,117
1710812360934,83
1710812360942,56
1710812360950,36
1710812360957,22
1710812360965,7
1710812360973,0
1710812360980,2
1710812360988,2
1710812360996,-2
1710812361003,-2
1710812361011,4
1710812361019,7
1710812361025,-9
1710812361033,-12
1710812361041,4
1710812361049,17
1710812361057,19
1710812361065,26
1710812361072,31
1710812361080,36
1710812361088,44
1710812361096,46
1710812361103,49
1710812361111,58
1710812361119,63
1710812361126,61
1710812361134,63
1710812361142,66
1710812361149,63
1710812361157,63
1710812361165,63
1710812361172,58
1710812361180,46
1710812361188,39
1710812361195,44
1710812361203,49
1710812361211,44
1710812361217,39
1710812361225,41
1710812361233,44
1710812361241,39
1710812361249,39
1710812361257,49
1710812361264,51
1710812361272,49
1710812361280,53
1710812361287,58
1710812361295,58
1710812361303,58
1710812361310,61
1710812361318,66
1710812361326,68
1710812361333,71
1710812361341,68
1710812361349,61
1710812361356,58
1710812361364,63
1710812361372,73
1710812361380,88
1710812361387,103
1710812361395,103
1710812361403,85
1710812361409,66
1710812361417,56
1710812361425,53
1710812361433,61
1710812361441,68
1710812361449,71
1710812361456,66
1710812361464,66
1710812361472,93
1710812361479,181
1710812361487,390
1710812361495,684
1710812361502,804
1710812361510,461
1710812361518,-152
1710812361525,-387
1710812361533,-159
1710812361541,-44
1710812361548,-73
1710812361556,-9
1710812361564,24
1710812361571,2
1710812361579,19
1710812361587,46
1710812361593,44
1710812361601,49
1710812361609,63
1710812361617,76
1710812361625,80
1710812361633,85
1710812361641,95
1710812361648,105
1710812361656,117
1710812361664,125
1710812361671,132
1710812361679,149
1710812361687,161
1710812361694,171
1710812361702,184
1710812361710,196
1710812361717,201
1710812361725,198
1710812361733,201
1710812361740,196
1710812361748,181
1710812361756,166
1710812361763,147
1710812361771,117
1710812361779,85
1710812361785,63
1710812361793,46
1710812361801,31
1710812361809,22
1710812361817,14
1710812361825,17
1710812361832,22
1710812361840,24
1710812361848,29
1710812361855,34
1710812361863,39
1710812361871,41
1710812361878,49
1710812361886,53
1710812361894,56
1710812361902,53
1710812361909,53
1710812361917,61
1710812361925,61
1710812361932,53
1710812361940,49
1710812361948,53
1710812361955,51
1710812361963,41
1710812361971,44
1710812361977,53
1710812361985,51
1710812361993,49
1710812362001,51
1710812362009,56
1710812362017,56
1710812362024,56
1710812362032,53
1710812362040,44
1710812362047,36
1710812362055,39
1710812362063,44
1710812362070,46
1710812362078,49
1710812362086,46
1710812362093,46
1710812362101,53
1710812362109,56
1710812362116,51
1710812362124,56
1710812362132,61
1710812362139,58
1710812362147,56
1710812362155,58
1710812362161,66
1710812362169,71
1710812362177,71
1710812362185,73
1710812362193,71
1710812362201,68
1710812362209,68
1710812362216,71
1710812362224,66
1710812362232,63
1710812362239,73
1710812362247,85
1710812362255,100
1710812362262,112
1710812362270,110
1710812362278,90
1710812362285,73
1710812362293,68
1710812362301,73
1710812362308,83
1710812362316,85
1710812362324,85
1710812362331,85
1710812362339,88
1710812362347,112
1710812362353,201
1710812362361,424
1710812362369,733
1710812362377,844
1710812362385,485
1710812362393,-142
1710812362400,-382
1710812362408,-130
1710812362416,24
1710812362423,-4
1710812362431,34
1710812362439,66
1710812362447,44
1710812362454,53
1710812362462,73
1710812362470,66
1710812362477,63
1710812362485,73
1710812362493,83
1710812362500,85
1710812362508,90
1710812362516,100
1710812362523,107
1710812362531,112
1710812362539,107
1710812362545,105
1710812362553,115
1710812362561,125
1710812362569,137
1710812362577,152
1710812362585,169
1710812362592,179
1710812362600,184
1710812362608,193
1710812362615,191
1710812362623,179
1710812362631,166
1710812362638,147
1710812362646,112
1710812362654,71
1710812362661,41
1710812362669,24
1710812362677,12
1710812362684,0
1710812362692,-9
1710812362700,-7
1710812362707,-4
1710812362715,0
1710812362723,4
1710812362731,9
1710812362737,12
1710812362745,17
1710812362753,24
1710812362761,31
1710812362769,36
1710812362777,36
1710812362784,41
1710812362792,49
1710812362800,44
1710812362807,39
1710812362815,46
1710812362823,58
1710812362830,58
1710812362838,58
1710812362846,66
1710812362853,71
1710812362861,76
1710812362869,76
1710812362876,73
1710812362884,76
1710812362892,76
1710812362899,76
1710812362907,78
1710812362915,80
1710812362921,76
1710812362929,73
1710812362937,73
1710812362945,71
1710812362953,73
1710812362961,78
1710812362968,76
1710812362976,76
1710812362984,71
1710812362992,71
1710812362999,76
1710812363007,78
1710812363015,76
1710812363022,76
1710812363030,83
1710812363038,90
1710812363045,83
1710812363053,76
1710812363061,76
1710812363068,76
1710812363076,71
1710812363084,73
1710812363091,83
1710812363099,85
1710812363107,78
1710812363113,78
1710812363121,80
1710812363129,73
1710812363137,78
1710812363145,95
1710812363153,105
1710812363160,110
1710812363168,112
1710812363176,107
1710812363183,78
1710812363191,61
1710812363199,66
1710812363206,76
1710812363214,76
1710812363222,76
1710812363229,78
1710812363237,80
1710812363245,95
1710812363252,169
1710812363260,375
1710812363268,674
1710812363276,812
1710812363283,502
1710812363291,-122
1710812363299,-402
1710812363305,-139
1710812363313,41
1710812363321,-2
1710812363329,31
1710812363337,78
1710812363345,46
1710812363352,49
1710812363360,78
1710812363368,78
1710812363375,71
1710812363383,78
1710812363391,85
1710812363398,83
1710812363406,83
1710812363414,88
1710812363421,90
1710812363429,90
1710812363437,93
1710812363444,105
1710812363452,120
1710812363460,130
1710812363467,137
1710812363475,152
1710812363483,169
1710812363489,176
1710812363497,181
1710812363505,184
1710812363513,181
1710812363521,166
1710812363529,152
1710812363537,137
1710812363544,112
1710812363552,83
1710812363560,44
1710812363567,17
1710812363575,9
1710812363583,-2
1710812363590,-9
1710812363598,-4
1710812363606,-2
1710812363613,-14
1710812363621,-14
1710812363629,0
1710812363636,9
1710812363644,12
1710812363652,22
1710812363659,31
1710812363667,36
1710812363675,39
1710812363681,41
1710812363689,46
1710812363697,51
1710812363705,46
1710812363713,49
1710812363721,56
1710812363728,56
1710812363736,51
1710812363744,56
1710812363751,61
1710812363759,61
1710812363767,61
1710812363774,63
1710812363782,68
1710812363790,71
1710812363798,68
1710812363805,71
1710812363813,76
1710812363821,78
1710812363828,78
1710812363836,83
1710812363844,83
1710812363851,78
1710812363859,80
1710812363867,90
1710812363873,90
1710812363881,83
1710812363889,80
1710812363897,88
1710812363905,93
1710812363913,88
1710812363920,85
1710812363928,85
1710812363936,85
1710812363943,90
1710812363951,95
1710812363959,100
1710812363966,100
1710812363974,98
1710812363982,98
1710812363989,100
1710812363997,103
1710812364005,98
1710812364012,90
1710812364020,88
1710812364028,93
1710812364035,103
1710812364043,115
1710812364051,127
1710812364057,130
1710812364065,110
1710812364073,78
1710812364081,71
1710812364089,80
1710812364097,76
1710812364105,78
1710812364112,85
1710812364120,80
1710812364128,78
1710812364135,107
1710812364143,198
1710812364151,419
1710812364158,704
1710812364166,767
1710812364174,360
1710812364181,-260
1710812364189,-407
1710812364197,-93
1710812364204,31
1710812364212,-22
1710812364220,39
1710812364227,78
1710812364235,41
1710812364243,36
1710812364249,46
1710812364257,46
1710812364265,56
1710812364273,68
1710812364281,73
1710812364289,80
1710812364296,88
1710812364304,93
1710812364312,103
1710812364319,115
1710812364327,125
1710812364335,132
1710812364343,147
1710812364350,159
1710812364358,171
1710812364366,184
1710812364373,196
1710812364381,206
1710812364389,208
1710812364396,206
1710812364404,203
1710812364412,188
1710812364419,166
1710812364427,139
1710812364435,117
1710812364441,93
1710812364449,63
1710812364457,44
1710812364465,36
1710812364473,31
1710812364481,24
1710812364488,19
1710812364496,26
1710812364504,31
1710812364511,34
1710812364519,39
1710812364527,46
1710812364534,49
1710812364542,53
1710812364550,58
1710812364557,66
1710812364565,68
1710812364573,61
1710812364580,58
1710812364588,63
1710812364596,68
1710812364603,63
1710812364611,61
1710812364619,66
1710812364627,63
1710812364633,56
1710812364641,58
1710812364649,63
1710812364657,63
1710812364665,58
1710812364673,61
1710812364680,66
1710812364688,68
1710812364696,68
1710812364703,68
1710812364711,71
1710812364719,71
1710812364726,68
1710812364734,76
1710812364742,83
1710812364749,83
1710812364757,78
1710812364765,78
1710812364772,78
1710812364780,68
1710812364788,56
1710812364795,58
1710812364803,66
1710812364811,68
1710812364817,68
1710812364825,76
1710812364833,78
1710812364841,76
1710812364849,76
1710812364857,76
1710812364864,76
1710812364872,78
1710812364880,80
1710812364888,78
1710812364895,76
1710812364903,73
1710812364911,76
1710812364918,90
1710812364926,105
1710812364934,112
1710812364941,115
1710812364949,105
1710812364957,73
1710812364964,53
1710812364972,63
1710812364980,78
1710812364987,78
1710812364995,73
1710812365003,73
1710812365009,78
1710812365017,107
1710812365025,220
1710812365033,468
1710812365041,718
1710812365049,669
1710812365056,161
1710812365064,-392
1710812365072,-372
1710812365079,-53
1710812365087,-4
1710812365095,-34
1710812365102,46
1710812365110,58
1710812365118,29
1710812365125,51
1710812365133,68
1710812365141,58
1710812365148,56
1710812365156,63
1710812365164,71
1710812365172,78
1710812365179,83
1710812365187,90
1710812365195,103
1710812365201,110
1710812365209,112
1710812365217,125
1710812365225,137
1710812365233,149
1710812365241,164
1710812365248,179
1710812365256,188
1710812365264,193
1710812365271,193
1710812365279,191
1710812365287,184
1710812365294,169
1710812365302,154
1710812365310,134
1710812365317,100
1710812365325,58
1710812365333,34
1710812365340,29
1710812365348,24
1710812365356,14
1710812365363,7
1710812365371,12
1710812365379,12
1710812365385,12
1710812365393,19
1710812365401,24
1710812365409,26
1710812365417,31
1710812365425,39
1710812365433,41
1710812365440,49
1710812365448,53
1710812365456,53
1710812365463,61
1710812365471,68
1710812365479,66
1710812365486,71
1710812365494,71
1710812365502,63
1710812365509,61
1710812365517,63
1710812365525,63
1710812365532,63
1710812365540,66
1710812365548,66
1710812365555,63
1710812365563,61
1710812365571,58
1710812365577,51
1710812365585,49
1710812365593,51
1710812365601,53
1710812365609,56
1710812365617,58
1710812365624,61
1710812365632,66
1710812365640,66
1710812365647,58
1710812365655,53
1710812365663,58
1710812365670,66
1710812365678,66
1710812365686,63
1710812365693,66
1710812365701,73
1710812365709,76
1710812365717,71
1710812365724,68
1710812365732,63
1710812365740,56
1710812365747,66
1710812365755,85
1710812365763,93
1710812365769,83
1710812365777,66
1710812365785,44
1710812365793,31
1710812365801,29
1710812365809,24
1710812365816,29
1710812365824,34
1710812365832,34
1710812365839,39
1710812365847,71
1710812365855,174
1710812365862,392
1710812365870,635
1710812365878,647
1710812365885,218
1710812365893,-331
1710812365901,-365
1710812365908,-61
1710812365916,-24
1710812365924,-83
1710812365931,7
1710812365939,51
1710812365947,12
1710812365955,14
1710812365961,34
1710812365969,34
1710812365977,46
1710812365985,58
1710812365993,61
1710812366001,66
1710812366008,73
1710812366016,80
1710812366024,85
1710812366031,95
1710812366039,112
1710812366047,117
1710812366054,112
1710812366062,120
1710812366070,139
1710812366077,152
1710812366085,157
1710812366093,161
1710812366100,161
1710812366108,159
1710812366116,159
1710812366123,157
1710812366131,142
1710812366139,110
1710812366145,85
1710812366153,66
1710812366161,44
1710812366169,36
1710812366177,36
1710812366185,24
1710812366192,14
1710812366200,17
1710812366208,19
1710812366215,19
1710812366223,19
1710812366231,24
1710812366239,31
1710812366246,29
1710812366254,34
1710812366262,41
1710812366269,49
1710812366277,53
1710812366285,56
1710812366292,66
1710812366300,71
1710812366308,66
1710812366315,68
1710812366323,71
1710812366331,68
1710812366337,73
1710812366345,76
1710812366353,71
1710812366361,66
1710812366369,68
1710812366377,68
1710812366384,58
1710812366392,56
1710812366400,58
1710812366407,58
1710812366415,58
1710812366423,58
1710812366430,44
1710812366438,29
1710812366446,34
1710812366453,46
1710812366461,41
1710812366469,39
1710812366476,56
1710812366484,66
1710812366492,61
1710812366499,61
1710812366507,71
1710812366515,71
1710812366523,73
1710812366529,88
1710812366537,105
1710812366545,110
1710812366553,95
1710812366561,58
1710812366569,44
1710812366576,53
1710812366584,56
1710812366592,51
1710812366599,56
1710812366607,58
1710812366615,51
1710812366622,63
1710812366630,144
1710812366638,358
1710812366645,623
1710812366653,689
1710812366661,336
1710812366668,-218
1710812366676,-350
1710812366684,-71
1710812366691,14
1710812366699,-58
1710812366707,14
1710812366713,78
1710812366721,41
1710812366729,39
1710812366737,66
1710812366745,66
1710812366753,71
1710812366760,73
1710812366768,61
1710812366776,63
1710812366784,80
1710812366791,83
1710812366799,80
1710812366807,90
1710812366814,95
1710812366822,100
1710812366830,115
1710812366837,130
1710812366845,134
1710812366853,147
1710812366860,166
1710812366868,174
1710812366876,161
1710812366883,149
1710812366891,147
1710812366899,144
1710812366905,130
1710812366913,105
1710812366921,78
1710812366929,58
1710812366937,36
1710812366945,14
1710812366952,7
1710812366960,7
1710812366968,-4
1710812366975,-17
1710812366983,-14
1710812366991,-2
1710812366998,4
1710812367006,4
1710812367014,4
1710812367021,9
1710812367029,17
1710812367037,24
1710812367044,26
1710812367052,39
1710812367060,49
1710812367068,41
1710812367075,41
1710812367083,46
1710812367091,34
1710812367097,31
1710812367105,44
1710812367113,44
1710812367121,31
1710812367129,31
1710812367137,41
1710812367144,44
1710812367152,36
1710812367160,31
1710812367167,41
1710812367175,46
1710812367183,44
1710812367190,49
1710812367198,46
1710812367206,44
1710812367213,58
1710812367221,68
1710812367229,63
1710812367236,66
1710812367244,71
1710812367252,61
1710812367259,68
1710812367267,98
1710812367275,115
1710812367281,105
1710812367289,95
1710812367297,76
1710812367305,53
1710812367313,53
1710812367321,58
1710812367329,56
1710812367336,56
1710812367344,68
1710812367352,76
1710812367359,76
1710812367367,100
1710812367375,211
1710812367382,449
1710812367390,709
1710812367398,701
1710812367405,257
1710812367413,-264
1710812367421,-277
1710812367428,2
1710812367436,19
1710812367444,-36
1710812367451,53
1710812367459,78
1710812367467,34
1710812367473,56
1710812367481,78
1710812367489,68
1710812367497,83
1710812367505,98
1710812367513,83
1710812367520,80
1710812367528,98
1710812367536,107
1710812367543,103
1710812367551,105
1710812367559,115
1710812367566,120
1710812367574,130
1710812367582,137
1710812367590,139
1710812367597,157
1710812367605,166
1710812367613,161
1710812367620,164
1710812367628,154
1710812367636,144
1710812367643,147
1710812367651,132
1710812367659,105
1710812367665,76
1710812367673,39
1710812367681,24
1710812367689,22
1710812367697,-2
1710812367705,-26
1710812367712,-7
1710812367720,-2
1710812367728,-31
1710812367735,-29
1710812367743,2
1710812367751,12
1710812367758,9
1710812367766,9
1710812367774,14
1710812367781,22
1710812367789,31
1710812367797,34
1710812367804,29
1710812367812,31
1710812367820,46
1710812367827,63
1710812367835,61
1710812367843,53
1710812367849,56
1710812367857,61
1710812367865,46
1710812367873,24
1710812367881,26
1710812367889,44
1710812367897,46
1710812367904,49
1710812367912,61
1710812367920,53
1710812367927,41
1710812367935,58
1710812367943,71
1710812367950,58
1710812367958,66
1710812367966,71
1710812367973,58
1710812367981,68
1710812367989,85
1710812367996,88
1710812368004,103
1710812368012,117
1710812368019,103
1710812368027,80
1710812368035,68
1710812368041,58
1710812368049,63
1710812368057,73
1710812368065,73
1710812368073,71
1710812368081,71
1710812368088,73
1710812368096,80
1710812368104,149
1710812368111,355
1710812368119,645
1710812368127,760
1710812368135,453
1710812368142,-125
1710812368150,-355
1710812368158,-95
1710812368165,14
1710812368173,-76
1710812368181,-4
1710812368188,78
1710812368196,34
1710812368204,19
1710812368211,56
1710812368219,71
1710812368227,66
1710812368233,56
1710812368241,63
1710812368249,93
1710812368257,90
1710812368265,76
1710812368273,103
1710812368280,130
1710812368288,127
1710812368296,120
1710812368303,127
1710812368311,159
1710812368319,184
1710812368326,184
1710812368334,191
1710812368342,203
1710812368349,198
1710812368357,188
1710812368365,176
1710812368372,164
1710812368380,152
1710812368388,120
1710812368395,85
1710812368403,66
1710812368411,53
1710812368419,41
1710812368425,26
1710812368433,12
1710812368441,2
1710812368449,9
1710812368457,26
1710812368465,26
1710812368472,19
1710812368480,24
1710812368488,39
1710812368495,39
1710812368503,26
1710812368511,34
1710812368518,56
1710812368526,66
1710812368534,66
1710812368541,61
1710812368549,66
1710812368557,78
1710812368564,71
1710812368572,53
1710812368580,56
1710812368587,63
1710812368595,49
1710812368603,39
1710812368609,49
1710812368617,44
1710812368625,36
1710812368633,46
1710812368641,53
1710812368649,36
1710812368656,26
1710812368664,51
1710812368672,61
1710812368680,44
1710812368687,46
1710812368695,63
1710812368703,58
1710812368710,46
1710812368718,44
1710812368726,56
1710812368733,73
1710812368741,76
1710812368749,66
1710812368756,61
1710812368764,44
1710812368772,14
1710812368779,17
1710812368787,36
1710812368795,41
1710812368801,39
1710812368809,39
1710812368817,41
1710812368825,56
1710812368833,110
1710812368841,267
1710812368848,532
1710812368856,753
1710812368864,650
1710812368871,134
1710812368879,-331
1710812368887,-242
1710812368894,2
1710812368902,-31
1710812368910,-44
1710812368917,49
1710812368925,41
1710812368933,17
1710812368940,53
1710812368948,63
1710812368956,51
1710812368964,71
1710812368971,88
1710812368979,83
1710812368987,88
1710812368993,100
1710812369001,107
1710812369009,107
1710812369017,112
1710812369025,139
1710812369033,159
1710812369040,157
1710812369048,161
1710812369056,174
1710812369063,188
1710812369071,206
1710812369079,215
1710812369086,203
1710812369094,181
1710812369102,164
1710812369109,149
1710812369117,134
1710812369125,112
1710812369132,83
1710812369140,58
1710812369148,44
1710812369155,29
1710812369163,4
1710812369171,-2
1710812369177,7
1710812369185,9
1710812369193,7
1710812369201,12
1710812369209,24
1710812369217,29
1710812369225,22
1710812369232,19
1710812369240,31
1710812369248,34
1710812369255,24
1710812369263,19
1710812369271,29
1710812369278,39
1710812369286,44
1710812369294,49
1710812369301,56
1710812369309,63
1710812369317,66
1710812369324,61
1710812369332,58
1710812369340,53
1710812369347,56
1710812369355,66
1710812369363,61
1710812369369,49
1710812369377,53
1710812369385,61
1710812369393,53
1710812369401,53
1710812369409,53
1710812369416,49
1710812369424,46
1710812369432,39
1710812369439,31
1710812369447,39
1710812369455,49
1710812369462,46
1710812369470,49
1710812369478,49
1710812369486,53
1710812369493,66
1710812369501,76
1710812369509,83
1710812369516,90
1710812369524,83
1710812369532,58
1710812369539,49
1710812369547,53
1710812369555,56
1710812369561,58
1710812369569,66
1710812369577,66
1710812369585,58
1710812369593,56
1710812369601,95
1710812369608,235
1710812369616,505
1710812369624,748
1710812369631,657
1710812369639,132
1710812369647,-363
1710812369654,-304
1710812369662,-53
1710812369670,-56
1710812369677,-61
1710812369685,17
1710812369693,9
1710812369700,-9
1710812369708,24
1710812369716,41
1710812369723,39
1710812369731,44
1710812369739,51
1710812369745,58
1710812369753,66
1710812369761,71
1710812369769,83
1710812369777,93
1710812369785,93
1710812369793,88
1710812369800,90
1710812369808,110
1710812369816,132
1710812369823,142
1710812369831,147
1710812369839,154
1710812369846,166
1710812369854,174
1710812369862,176
1710812369869,169
1710812369877,152
1710812369885,132
1710812369892,115
1710812369900,88
1710812369908,58
1710812369915,36
1710812369923,26
1710812369931,19
1710812369937,14
1710812369945,9
1710812369953,12
1710812369961,14
1710812369969,14
1710812369977,12
1710812369984,19
1710812369992,26
1710812370000,26
1710812370007,26
1710812370015,36
1710812370023,44
1710812370031,46
1710812370038,49
1710812370046,53
1710812370054,58
1710812370061,63
1710812370069,68
1710812370077,71
1710812370084,66
1710812370092,63
1710812370100,61
1710812370107,56
1710812370115,58
1710812370123,58
1710812370129,56
1710812370137,53
1710812370145,53
1710812370153,46
1710812370161,41
1710812370169,46
1710812370176,51
1710812370184,44
1710812370192,41
1710812370199,44
1710812370207,51
1710812370215,51
1710812370222,56
1710812370230,56
1710812370238,53
1710812370245,53
1710812370253,56
1710812370261,61
1710812370268,61
1710812370276,53
1710812370284,51
1710812370291,61
1710812370299,71
1710812370307,76
1710812370315,88
1710812370321,100
1710812370329,85
1710812370337,53
1710812370345,39
1710812370353,46
1710812370361,44
1710812370368,34
1710812370376,39
1710812370384,49
1710812370391,44
1710812370399,51
1710812370407,95
1710812370414,220
1710812370422,480
1710812370430,760
1710812370437,743
1710812370445,264
1710812370453,-294
1710812370460,-338
1710812370468,-68
1710812370476,-4
1710812370483,-22
1710812370491,39
1710812370499,53
1710812370505,31
1710812370513,41
1710812370521,51
1710812370529,51
1710812370537,61
1710812370545,71
1710812370552,78
1710812370560,85
1710812370568,90
1710812370576,95
1710812370583,105
1710812370591,115
1710812370599,112
1710812370606,115
1710812370614,127
1710812370622,144
1710812370629,159
1710812370637,176
1710812370645,186
1710812370652,193
1710812370660,198
1710812370668,201
1710812370675,196
1710812370683,184
1710812370691,161
1710812370697,132
1710812370705,103
1710812370713,73
1710812370721,49
1710812370729,34
1710812370737,22
1710812370744,9
1710812370752,2
1710812370760,7
1710812370767,12
1710812370775,14
1710812370783,19
1710812370790,26
1710812370798,29
1710812370806,34
1710812370813,36
1710812370821,39
1710812370829,44
1710812370836,49
1710812370844,51
1710812370852,56
1710812370860,61
1710812370867,58
1710812370875,56
1710812370883,58
1710812370889,61
1710812370897,61
1710812370905,66
1710812370913,66
1710812370921,61
1710812370929,56
1710812370936,51
1710812370944,51
1710812370952,56
1710812370959,49
1710812370967,46
1710812370975,51
1710812370982,49
1710812370990,46
1710812370998,53
1710812371005,58
1710812371013,58
1710812371021,58
1710812371028,58
1710812371036,58
1710812371044,63
1710812371051,56
1710812371059,49
1710812371067,53
1710812371073,56
1710812371081,56
1710812371089,58
1710812371097,61
1710812371105,61
1710812371113,51
1710812371121,46
1710812371128,49
1710812371136,58
1710812371144,68
1710812371151,78
1710812371159,93
1710812371167,107
1710812371174,100
1710812371182,76
1710812371190,63
1710812371197,68
1710812371205,71
1710812371213,73
1710812371220,76
1710812371228,73
1710812371236,66
1710812371243,73
1710812371251,130
1710812371259,287
1710812371265,564
1710812371273,794
1710812371281,662
1710812371289,100
1710812371297,-368
1710812371305,-264
1710812371312,-7
1710812371320,-2
1710812371328,0
1710812371335,63
1710812371343,56
1710812371351,44
1710812371358,68
1710812371366,80
1710812371374,80
1710812371382,88
1710812371389,95
1710812371397,98
1710812371405,100
1710812371412,103
1710812371420,103
1710812371428,112
1710812371435,122
1710812371443,127
1710812371451,139
1710812371457,157
1710812371465,169
1710812371473,174
1710812371481,186
1710812371489,201
1710812371497,203
1710812371504,198
1710812371512,198
1710812371520,196
1710812371527,181
1710812371535,159
1710812371543,134
1710812371550,107
1710812371558,71
1710812371566,44
1710812371573,31
1710812371581,19
1710812371589,4
1710812371596,-2
1710812371604,0
1710812371612,-2
1710812371619,-9
1710812371627,-2
1710812371635,9
1710812371641,14
1710812371649,12
1710812371657,17
1710812371665,19
1710812371673,24
1710812371681,29
1710812371689,34
1710812371696,39
1710812371704,46
1710812371712,49
1710812371719,46
1710812371727,51
1710812371735,58
1710812371742,61
1710812371750,61
1710812371758,63
1710812371765,56
1710812371773,49
1710812371781,46
1710812371788,51
1710812371796,56
1710812371804,53
1710812371811,49
1710812371819,56
1710812371827,61
1710812371833,58
1710812371841,63
1710812371849,68
1710812371857,68
1710812371865,68
1710812371873,73
1710812371880,78
1710812371888,78
1710812371896,78
1710812371903,78
1710812371911,80
1710812371919,83
1710812371927,85
1710812371934,88
1710812371942,90
1710812371950,83
1710812371957,68
1710812371965,63
1710812371973,66
1710812371980,66
1710812371988,73
1710812371996,85
1710812372003,100
1710812372011,117
1710812372019,122
1710812372025,110
1710812372033,85
1710812372041,78
1710812372049,80
1710812372057,83
1710812372065,88
1710812372072,85
1710812372080,78
1710812372088,83
1710812372095,112
1710812372103,213
1710812372111,449
1710812372118,736
1710812372126,777
1710812372134,345
1710812372141,-267
1710812372149,-402
1710812372157,-98
1710812372164,22
1710812372172,-17
1710812372180,41
1710812372187,73
1710812372195,49
1710812372203,58
1710812372211,78
1710812372217,73
1710812372225,78
1710812372233,93
1710812372241,103
1710812372249,105
1710812372257,112
1710812372264,120
1710812372272,127
1710812372280,130
1710812372287,134
1710812372295,142
1710812372303,152
1710812372310,157
1710812372318,164
1710812372326,179
1710812372333,198
1710812372341,206
1710812372349,208
1710812372356,215
1710812372364,213
1710812372372,196
1710812372379,179
1710812372387,159
1710812372395,127
1710812372401,93
1710812372409,66
1710812372417,46
1710812372425,34
1710812372433,24
1710812372441,22
1710812372448,24
1710812372456,24
1710812372464,26
1710812372472,31
1710812372479,36
1710812372487,36
1710812372495,36
1710812372502,39
1710812372510,46
1710812372518,46
1710812372525,41
1710812372533,46
1710812372541,51
1710812372548,46
1710812372556,46
1710812372564,58
1710812372571,63
1710812372579,63
1710812372587,66
1710812372593,68
1710812372601,68
1710812372609,66
1710812372617,61
1710812372625,58
1710812372633,53
1710812372640,44
1710812372648,49
1710812372656,56
1710812372663,56
1710812372671,51
1710812372679,49
1710812372686,53
1710812372694,58
1710812372702,61
1710812372709,66
1710812372717,71
1710812372725,73
1710812372732,71
1710812372740,76
1710812372748,80
1710812372756,78
1710812372763,80
1710812372771,85
1710812372779,88
1710812372785,85
1710812372793,80
1710812372801,80
1710812372809,80
1710812372817,80
1710812372825,88
1710812372832,103
1710812372840,112
1710812372848,120
1710812372855,122
1710812372863,107
1710812372871,85
1710812372878,76
1710812372886,85
1710812372894,93
1710812372901,95
1710812372909,98
1710812372917,95
1710812372924,100
1710812372932,127
1710812372940,228
1710812372947,468
1710812372955,753
1710812372963,775
1710812372969,316
1710812372977,-294
1710812372985,-375
1710812372993,-49
1710812373001,46
1710812373009,2
1710812373017,71
1710812373024,95
1710812373032,58
1710812373040,73
1710812373047,98
1710812373055,93
1710812373063,88
1710812373070,93
1710812373078,105
1710812373086,112
1710812373093,112
1710812373101,117
1710812373109,125
1710812373116,134
1710812373124,142
1710812373132,142
1710812373139,142
1710812373147,147
1710812373155,154
1710812373161,161
1710812373169,174
1710812373177,186
1710812373185,191
1710812373193,186
1710812373201,184
1710812373208,176
1710812373216,152
1710812373224,127
1710812373231,105
1710812373239,78
1710812373247,51
1710812373254,39
1710812373262,31
1710812373270,22
1710812373278,17
1710812373285,14
1710812373293,17
1710812373301,24
1710812373308,26
1710812373316,34
1710812373324,41
1710812373331,41
1710812373339,46
1710812373347,58
1710812373353,63
1710812373361,66
1710812373369,66
1710812373377,68
1710812373385,68
1710812373393,66
1710812373400,68
1710812373408,76
1710812373416,76
1710812373423,76
1710812373431,78
1710812373439,80
1710812373446,80
1710812373454,80
1710812373462,83
1710812373469,80
1710812373477,78
1710812373485,80
1710812373492,83
1710812373500,85
1710812373508,85
1710812373515,80
1710812373523,78
1710812373531,78
1710812373537,78
1710812373545,78
1710812373553,80
1710812373561,80
1710812373569,78
1710812373577,73
1710812373585,73
1710812373592,78
1710812373600,80
1710812373608,80
1710812373615,85
1710812373623,90
1710812373631,88
1710812373638,76
1710812373646,68
1710812373654,73
1710812373661,88
1710812373669,103
1710812373677,112
1710812373684,125
1710812373692,117
1710812373700,85
1710812373707,68
1710812373715,83
1710812373723,83
1710812373729,73
1710812373737,78
1710812373745,80
1710812373753,71
1710812373761,90
1710812373769,181
1710812373776,399
1710812373784,679
1710812373792,745
1710812373799,338
1710812373807,-291
1710812373815,-439
1710812373823,-105
1710812373830,34
1710812373838,-17
1710812373846,44
1710812373853,88
1710812373861,58
1710812373869,68
1710812373876,88
1710812373884,85
1710812373892,90
1710812373899,103
1710812373907,107
1710812373915,110
1710812373921,115
1710812373929,112
1710812373937,112
1710812373945,117
1710812373953,125
1710812373961,132
1710812373968,142
1710812373976,152
1710812373984,161
1710812373991,171
1710812373999,179
1710812374007,188
1710812374014,196
1710812374022,188
1710812374030,176
1710812374037,174
1710812374045,159
1710812374053,134
1710812374060,110
1710812374068,85
1710812374076,66
1710812374083,46
1710812374091,31
1710812374099,26
1710812374107,19
1710812374113,7
1710812374121,7
1710812374129,17
1710812374137,22
1710812374145,19
1710812374153,17
1710812374160,24
1710812374168,34
1710812374176,39
1710812374183,46
1710812374191,53
1710812374199,53
1710812374206,51
1710812374214,56
1710812374222,63
1710812374229,68
1710812374237,66
1710812374245,66
1710812374252,68
1710812374260,63
1710812374268,58
1710812374275,58
1710812374283,63
1710812374291,61
1710812374297,53
1710812374305,51
1710812374313,53
1710812374321,41
1710812374329,26
1710812374337,36
1710812374344,44
1710812374352,39
1710812374360,41
1710812374367,51
1710812374375,53
1710812374383,51
1710812374391,49
1710812374398,51
1710812374406,56
1710812374414,63
1710812374421,63
1710812374429,56
1710812374437,51
1710812374444,58
1710812374452,71
1710812374460,76
1710812374467,83
1710812374475,88
1710812374483,88
1710812374489,83
1710812374497,61
1710812374505,41
1710812374513,51
1710812374521,56
1710812374529,49
1710812374536,51
1710812374544,61
1710812374552,66
1710812374559,88
1710812374567,184
1710812374575,404
1710812374582,662
1710812374590,684
1710812374598,252
1710812374605,-326
1710812374613,-397
1710812374621,-78
1710812374628,9
1710812374636,-34
1710812374644,44
1710812374652,71
1710812374659,26
1710812374667,41
1710812374675,71
1710812374681,58
1710812374689,56
1710812374697,71
1710812374705,68
1710812374713,61
1710812374721,73
1710812374728,88
1710812374736,90
1710812374744,88
1710812374751,90
1710812374759,98
1710812374767,105
1710812374774,115
1710812374782,122
1710812374790,134
1710812374797,144
1710812374805,144
1710812374813,139
1710812374820,137
1710812374828,127
1710812374836,110
1710812374843,90
1710812374851,78
1710812374859,58
1710812374865,31
1710812374873,12
1710812374881,0
1710812374889,-12
1710812374897,-19
1710812374905,-14
1710812374912,-12
1710812374920,-17
1710812374928,-14
1710812374936,0
1710812374943,2
1710812374951,4
1710812374959,14
1710812374966,24
1710812374974,22
1710812374982,26
1710812374989,34
1710812374997,36
1710812375005,39
1710812375012,34
1710812375020,22
1710812375028,26
1710812375035,36
1710812375043,34
1710812375051,36
1710812375057,46
1710812375065,46
1710812375073,41
1710812375081,41
1710812375089,49
1710812375097,53
1710812375104,53
1710812375112,53
1710812375120,53
1710812375127,53
1710812375135,53
1710812375143,58
1710812375150,53
1710812375158,44
1710812375166,46
1710812375173,51
1710812375181,51
1710812375189,51
1710812375197,51
1710812375204,51
1710812375212,58
1710812375220,71
1710812375227,85
1710812375235,95
1710812375243,90
1710812375249,51
1710812375257,26
1710812375265,44
1710812375273,58
1710812375281,58
1710812375289,58
1710812375296,63
1710812375304,61
1710812375312,66
1710812375319,122
1710812375327,294
1710812375335,566
1710812375342,718
1710812375350,480
1710812375358,-80
1710812375365,-375
1710812375373,-152
1710812375381,14
1710812375388,-44
1710812375396,-4
1710812375404,61
1710812375411,26
1710812375419,24
1710812375427,58
1710812375433,53
1710812375441,49
1710812375449,66
1710812375457,73
1710812375465,76
1710812375473,80
1710812375481,85
1710812375488,88
1710812375496,90
1710812375504,100
1710812375511,107
1710812375519,115
1710812375527,130
1710812375534,147
1710812375542,152
1710812375550,159
1710812375557,166
1710812375565,166
1710812375573,166
1710812375580,161
1710812375588,149
1710812375596,130
1710812375603,115
1710812375611,100
1710812375619,76
1710812375625,56
1710812375633,44
1710812375641,24
1710812375649,9
1710812375657,0
1710812375665,-9
1710812375672,-12
1710812375680,-12
1710812375688,-7
1710812375695,0
1710812375703,9
1710812375711,17
1710812375718,17
1710812375726,19
1710812375734,19
1710812375742,19
1710812375749,24
1710812375757,29
1710812375765,31
1710812375772,34
1710812375780,36
1710812375788,44
1710812375795,46
1710812375803,46
1710812375811,51
1710812375817,56
1710812375825,49
1710812375833,44
1710812375841,53
1710812375849,61
1710812375857,49
1710812375864,49
1710812375872,58
1710812375880,58
1710812375887,63
1710812375895,73
1710812375903,71
1710812375910,58
1710812375918,56
1710812375926,68
1710812375933,71
1710812375941,71
1710812375949,88
1710812375956,105
1710812375964,105
1710812375972,78
1710812375979,46
1710812375987,44
1710812375995,49
1710812376001,41
1710812376009,51
1710812376017,56
1710812376025,46
1710812376033,46
1710812376041,71
1710812376049,137
1710812376056,306
1710812376064,574
1710812376072,728
1710812376079,485
1710812376087,-76
1710812376095,-363
1710812376102,-139
1710812376110,26
1710812376118,-36
1710812376125,-7
1710812376133,63
1710812376141,44
1710812376148,39
1710812376156,58
1710812376164,53
1710812376171,53
1710812376179,71
1710812376187,73
1710812376193,68
1710812376201,78
1710812376209,93
1710812376217,100
1710812376225,110
1710812376233,120
1710812376240,117
1710812376248,125
1710812376256,144
1710812376263,157
1710812376271,159
1710812376279,159
1710812376287,159
1710812376294,164
1710812376302,169
1710812376310,161
1710812376317,152
1710812376325,144
1710812376333,120
1710812376340,83
1710812376348,61
1710812376356,58
1710812376363,41
1710812376371,24
1710812376379,26
1710812376385,24
1710812376393,12
1710812376401,14
1710812376409,22
1710812376417,22
1710812376425,24
1710812376432,39
1710812376440,49
1710812376448,41
1710812376455,31
1710812376463,34
1710812376471,51
1710812376478,51
1710812376486,34
1710812376494,36
1710812376501,51
1710812376509,49
1710812376517,39
1710812376524,46
1710812376532,46
1710812376540,26
1710812376547,17
1710812376555,29
1710812376563,34
1710812376571,31
1710812376577,39
1710812376585,39
1710812376593,36
1710812376601,41
1710812376609,44
1710812376617,44
1710812376624,53
1710812376632,58
1710812376640,49
1710812376647,46
1710812376655,61
1710812376663,80
1710812376670,85
1710812376678,78
1710812376686,63
1710812376693,39
1710812376701,29
1710812376709,44
1710812376716,58
1710812376724,53
1710812376732,44
1710812376739,49
1710812376747,58
1710812376755,73
1710812376761,139
1710812376769,328
1710812376777,610
1710812376785,755
1710812376793,493
1710812376801,-68
1710812376808,-358
1710812376816,-144
1710812376824,17
1710812376832,-46
1710812376839,-4
1710812376847,73
1710812376855,44
1710812376862,34
1710812376870,63
1710812376878,66
1710812376885,73
1710812376893,93
1710812376901,90
1710812376908,93
1710812376916,112
1710812376924,117
1710812376931,112
1710812376939,125
1710812376947,134
1710812376953,142
1710812376961,154
1710812376969,161
1710812376977,166
1710812376985,176
1710812376993,181
1710812377000,191
1710812377008,201
1710812377016,198
1710812377023,188
1710812377031,184
1710812377039,171
1710812377046,142
1710812377054,105
1710812377062,88
1710812377069,76
1710812377077,53
1710812377085,36
1710812377093,26
1710812377100,22
1710812377108,26
1710812377116,34
1710812377123,36
1710812377131,36
1710812377139,31
1710812377145,34
1710812377153,44
1710812377161,44
1710812377169,41
1710812377177,49
1710812377185,49
1710812377192,51
1710812377200,58
1710812377208,58
1710812377215,49
1710812377223,51
1710812377231,58
1710812377238,56
1710812377246,56
1710812377254,61
1710812377261,58
1710812377269,53
1710812377277,53
1710812377284,58
1710812377292,66
1710812377300,56
1710812377307,46
1710812377315,56
1710812377323,61
1710812377329,49
1710812377337,49
1710812377345,53
1710812377353,51
1710812377361,49
1710812377369,58
1710812377377,76
1710812377384,83
1710812377392,88
1710812377400,80
1710812377407,58
1710812377415,41
1710812377423,49
1710812377430,56
1710812377438,58
1710812377446,63
1710812377453,66
1710812377461,63
1710812377469,63
1710812377476,110
1710812377484,262
1710812377492,534
1710812377499,763
1710812377507,647
1710812377515,115
1710812377521,-336
1710812377529,-238
1710812377537,-9
1710812377545,-34
1710812377553,-22
1710812377561,66
1710812377568,51
1710812377576,29
1710812377584,61
1710812377591,73
1710812377599,73
1710812377607,85
1710812377614,90
1710812377622,90
1710812377630,98
1710812377637,105
1710812377645,112
1710812377653,125
1710812377660,132
1710812377668,137
1710812377676,147
1710812377684,157
1710812377691,161
1710812377699,176
1710812377707,191
1710812377713,198
1710812377721,201
1710812377729,201
1710812377737,196
1710812377745,181
1710812377753,157
1710812377760,139
1710812377768,120
1710812377776,88
1710812377783,63
1710812377791,51
1710812377799,31
1710812377806,12
1710812377814,9
1710812377822,9
1710812377829,9
1710812377837,12
1710812377845,17
1710812377852,26
1710812377860,26
1710812377868,22
1710812377875,29
1710812377883,39
1710812377891,36
1710812377897,34
1710812377905,39
1710812377913,51
1710812377921,56
1710812377929,58
1710812377937,58
1710812377945,63
1710812377952,68
1710812377960,68
1710812377968,63
1710812377975,63
1710812377983,68
1710812377991,71
1710812377998,71
1710812378006,68
1710812378014,71
1710812378021,71
1710812378029,68
1710812378037,71
1710812378044,76
1710812378052,73
1710812378060,73
1710812378067,73
1710812378075,63
1710812378083,63
1710812378089,71
1710812378097,73
1710812378105,68
1710812378113,78
1710812378121,98
1710812378129,100
1710812378136,93
1710812378144,80
1710812378152,61
1710812378159,51
1710812378167,58
1710812378175,68
1710812378183,61
1710812378190,51
1710812378198,46
1710812378206,49
1710812378213,63
1710812378221,142
1710812378229,345
1710812378236,650
1710812378244,785
1710812378252,463
1710812378259,-149
1710812378267,-412
1710812378275,-174
1710812378281,-14
1710812378289,-41
1710812378297,9
1710812378305,53
1710812378313,31
1710812378321,41
1710812378328,66
1710812378336,66
1710812378344,71
1710812378351,83
1710812378359,90
1710812378367,98
1710812378374,103
1710812378382,110
1710812378390,117
1710812378397,127
1710812378405,134
1710812378413,144
1710812378420,159
1710812378428,169
1710812378436,174
1710812378443,184
1710812378451,198
1710812378459,208
1710812378467,208
1710812378473,208
1710812378481,206
1710812378489,193
1710812378497,174
1710812378505,152
1710812378513,125
1710812378520,93
1710812378528,68
1710812378536,56
1710812378543,46
1710812378551,34
1710812378559,29
1710812378566,31
1710812378574,34
1710812378582,36
1710812378589,39
1710812378597,41
1710812378605,49
1710812378612,51
1710812378620,49
1710812378628,53
1710812378635,61
1710812378643,63
1710812378651,68
1710812378657,76
1710812378665,78
1710812378673,83
1710812378681,85
1710812378689,78
1710812378697,71
1710812378704,71
1710812378712,73
1710812378720,73
1710812378728,76
1710812378735,76
1710812378743,73
1710812378751,73
1710812378758,71
1710812378766,58
1710812378774,53
1710812378781,63
1710812378789,61
1710812378797,53
1710812378804,61
1710812378812,63
1710812378820,58
1710812378827,63
1710812378835,68
1710812378843,73
1710812378849,73
1710812378857,68
1710812378865,63
1710812378873,63
1710812378881,61
1710812378889,68
1710812378896,83
1710812378904,95
1710812378912,105
1710812378919,107
1710812378927,90
1710812378935,68
1710812378942,61
1710812378950,66
1710812378958,71
1710812378965,73
1710812378973,68
1710812378981,63
1710812378988,76
1710812378996,107
1710812379004,213
1710812379012,463
1710812379019,758
1710812379027,780
1710812379035,326
1710812379041,-264
1710812379049,-358
1710812379057,-71
1710812379065,22
1710812379073,-2
1710812379081,58
1710812379088,76
1710812379096,51
1710812379104,73
1710812379111,98
1710812379119,90
1710812379127,90
1710812379134,103
1710812379142,110
1710812379150,110
1710812379157,110
1710812379165,115
1710812379173,127
1710812379180,132
1710812379188,139
1710812379196,142
1710812379203,142
1710812379211,154
1710812379219,171
1710812379225,186
1710812379233,198
1710812379241,211
1710812379249,215
1710812379257,218
1710812379265,215
1710812379273,201
1710812379280,181
1710812379288,159
1710812379296,127
1710812379303,95
1710812379311,71
1710812379319,53
1710812379326,39
1710812379334,19
1710812379342,4
1710812379349,12
1710812379357,19
1710812379365,19
1710812379372,24
1710812379380,34
1710812379388,41
1710812379395,44
1710812379403,49
1710812379411,51
1710812379417,49
1710812379425,51
1710812379433,58
1710812379441,58
1710812379449,58
1710812379457,63
1710812379464,68
1710812379472,68
1710812379480,71
1710812379487,73
1710812379495,76
1710812379503,78
1710812379510,73
1710812379518,66
1710812379526,68
1710812379534,73
1710812379541,73
1710812379549,71
1710812379557,73
1710812379564,78
1710812379572,76
1710812379580,73
1710812379587,76
1710812379595,73
1710812379603,68
1710812379609,68
1710812379617,71
1710812379625,73
1710812379633,71
1710812379641,71
1710812379649,73
1710812379656,76
1710812379664,76
1710812379672,76
1710812379679,71
1710812379687,56
1710812379695,46
1710812379702,51
1710812379710,61
1710812379718,68
1710812379725,85
1710812379733,98
1710812379741,83
1710812379748,61
1710812379756,53
1710812379764,61
1710812379771,68
1710812379779,68
1710812379787,73
1710812379793,80
1710812379801,83
1710812379809,98
1710812379817,174
1710812379825,387
1710812379833,694
1710812379841,814
1710812379848,473
1710812379856,-152
1710812379864,-407
1710812379871,-154
1710812379879,9
1710812379887,-19
1710812379894,29
1710812379902,71
1710812379910,46
1710812379917,53
1710812379925,80
1710812379933,78
1710812379940,80
1710812379948,95
1710812379956,103
1710812379963,103
1710812379971,110
1710812379979,122
1710812379985,130
1710812379993,134
1710812380001,147
1710812380009,159
1710812380017,164
1710812380025,169
1710812380032,179
1710812380040,196
1710812380048,206
1710812380055,208
1710812380063,218
1710812380071,225
1710812380079,218
1710812380086,206
1710812380094,191
1710812380102,169
1710812380109,139
1710812380117,112
1710812380125,85
1710812380132,61
1710812380140,39
1710812380148,26
1710812380155,24
1710812380163,26
1710812380171,26
1710812380177,24
1710812380185,26
1710812380193,34
1710812380201,34
1710812380209,29
1710812380217,31
1710812380224,36
1710812380232,36
1710812380240,34
1710812380247,44
1710812380255,51
1710812380263,51
1710812380270,58
1710812380278,61
1710812380286,63
1710812380293,66
1710812380301,66
1710812380309,66
1710812380316,66
1710812380324,63
1710812380332,58
1710812380339,61
1710812380347,63
1710812380355,61
1710812380363,61
1710812380369,66
1710812380377,63
1710812380385,51
1710812380393,51
1710812380401,61
1710812380409,63
1710812380416,61
1710812380424,58
1710812380432,61
1710812380439,63
1710812380447,56
1710812380455,56
1710812380462,66
1710812380470,63
1710812380478,61
1710812380485,71
1710812380493,76
1710812380501,76
1710812380508,73
1710812380516,68
1710812380524,68
1710812380531,76
1710812380539,85
1710812380547,98
1710812380553,112
1710812380561,117
1710812380569,103
1710812380577,78
1710812380585,68
1710812380593,73
1710812380600,78
1710812380608,83
1710812380616,88
1710812380624,88
1710812380631,85
1710812380639,103
1710812380647,169
1710812380654,353
1710812380662,645
1710812380670,802
1710812380677,522
1710812380685,-103
1710812380693,-426
1710812380700,-174
1710812380708,31
1710812380716,-19
1710812380723,12
1710812380731,78
1710812380739,49
1710812380745,36
1710812380753,66
1710812380761,73
1710812380769,71
1710812380777,83
1710812380785,93
1710812380792,95
1710812380800,105
1710812380808,112
1710812380815,117
1710812380823,125
1710812380831,134
1710812380838,142
1710812380846,152
1710812380854,161
1710812380861,174
1710812380869,188
1710812380877,201
1710812380884,211
1710812380892,215
1710812380900,220
1710812380908,215
1710812380915,198
1710812380923,169
1710812380931,147
1710812380937,125
1710812380945,98
1710812380953,68
1710812380961,51
1710812380969,41
1710812380977,26
1710812380984,19
1710812380992,22
1710812381000,29
1710812381007,29
1710812381015,26
1710812381023,26
1710812381030,36
1710812381038,36
1710812381046,29
1710812381053,31
1710812381061,39
1710812381069,39
1710812381076,46
1710812381084,53
1710812381092,56
1710812381099,53
1710812381107,49
1710812381115,51
1710812381121,58
1710812381129,58
1710812381137,58
1710812381145,63
1710812381153,61
1710812381161,58
1710812381169,58
1710812381176,63
1710812381184,66
1710812381192,63
1710812381199,66
1710812381207,68
1710812381215,63
1710812381222,53
1710812381230,53
1710812381238,63
1710812381245,63
1710812381253,61
1710812381261,63
1710812381268,71
1710812381276,73
1710812381284,66
1710812381291,63
1710812381299,68
1710812381307,68
1710812381313,68
1710812381321,78
1710812381329,80
1710812381337,76
1710812381345,71
1710812381353,68
1710812381360,80
1710812381368,100
1710812381376,110
1710812381383,120
1710812381391,130
1710812381399,117
1710812381406,80
1710812381414,71
1710812381422,88
1710812381430,90
1710812381437,83
1710812381445,88
1710812381453,93
1710812381460,88
1710812381468,112
1710812381476,235
1710812381483,493
1710812381491,750
1710812381499,706
1710812381505,191
1710812381513,-370
1710812381521,-341
1710812381529,-14
1710812381537,34
1710812381545,7
1710812381552,85
1710812381560,95
1710812381568,66
1710812381575,85
1710812381583,93
1710812381591,80
1710812381598,90
1710812381606,105
1710812381614,103
1710812381621,107
1710812381629,117
1710812381637,117
1710812381644,112
1710812381652,115
1710812381660,122
1710812381667,130
1710812381675,139
1710812381683,154
1710812381689,171
1710812381697,186
1710812381705,193
1710812381713,196
1710812381721,193
1710812381729,193
1710812381737,191
1710812381744,181
1710812381752,161
1710812381760,134
1710812381767,103
1710812381775,76
1710812381783,51
1710812381790,31
1710812381798,22
1710812381806,14
1710812381813,7
1710812381821,2
1710812381829,2
1710812381836,7
1710812381844,14
1710812381852,17
1710812381859,22
1710812381867,31
1710812381875,39
1710812381881,41
1710812381889,46
1710812381897,49
1710812381905,46
1710812381913,51
1710812381921,56
1710812381928,58
1710812381936,58
1710812381944,61
1710812381951,63
1710812381959,63
1710812381967,66
1710812381975,66
1710812381982,66
1710812381990,66
1710812381998,61
1710812382005,56
1710812382013,53
1710812382021,58
1710812382028,58
1710812382036,58
1710812382044,61
1710812382051,66
1710812382059,68
1710812382067,68
1710812382073,68
1710812382081,71
1710812382089,71
1710812382097,73
1710812382105,78
1710812382113,80
1710812382120,80
1710812382128,78
1710812382136,83
1710812382143,80
1710812382151,68
1710812382159,58
1710812382166,58
1710812382174,63
1710812382182,66
1710812382189,76
1710812382197,95
1710812382205,107
1710812382212,98
1710812382220,66
1710812382228,39
1710812382235,41
1710812382243,53
1710812382251,58
1710812382259,61
1710812382265,61
1710812382273,61
1710812382281,83
1710812382289,171
1710812382297,390
1710812382305,669
1710812382312,740
1710812382320,348
1710812382328,-277
1710812382335,-434
1710812382343,-105
1710812382351,36
1710812382358,-19
1710812382366,31
1710812382374,71
1710812382381,39
1710812382389,49
1710812382397,71
1710812382404,63
1710812382412,66
1710812382420,80
1710812382427,85
1710812382435,93
1710812382443,100
1710812382449,98
1710812382457,100
1710812382465,110
1710812382473,125
1710812382481,137
1710812382489,144
1710812382496,152
1710812382504,166
1710812382512,181
1710812382520,193
1710812382527,201
1710812382535,198
1710812382543,181
1710812382550,159
1710812382558,149
1710812382566,134
1710812382573,98
1710812382581,66
1710812382589,49
1710812382596,31
1710812382604,9
1710812382612,-2
1710812382619,-2
1710812382627,-4
1710812382635,-12
1710812382641,-14
1710812382649,-7
1710812382657,-2
1710812382665,4
1710812382673,7
1710812382681,12
1710812382688,19
1710812382696,19
1710812382704,19
1710812382711,26
1710812382719,26
1710812382727,19
1710812382734,19
1710812382742,24
1710812382750,29
1710812382757,29
1710812382765,26
1710812382773,29
1710812382781,34
1710812382788,36
1710812382796,44
1710812382804,44
1710812382811,36
1710812382819,36
1710812382827,41
1710812382833,41
1710812382841,41
1710812382849,46
1710812382857,51
1710812382865,49
1710812382873,51
1710812382880,53
1710812382888,51
1710812382896,46
1710812382903,46
1710812382911,46
1710812382919,49
1710812382926,49
1710812382934,41
1710812382942,39
1710812382949,44
1710812382957,46
1710812382965,51
1710812382972,63
1710812382980,83
1710812382988,90
1710812382995,83
1710812383003,53
1710812383011,34
1710812383017,41
1710812383025,49
1710812383033,56
1710812383041,63
1710812383049,63
1710812383057,58
1710812383065,76
1710812383072,147
1710812383080,323
1710812383088,583
1710812383095,706
1710812383103,422
1710812383111,-161
1710812383118,-404
1710812383126,-137
1710812383134,14
1710812383141,-49
1710812383149,7
1710812383157,76
1710812383164,49
1710812383172,46
1710812383180,66
1710812383187,61
1710812383195,68
1710812383203,85
1710812383209,85
1710812383217,83
1710812383225,93
1710812383233,98
1710812383241,93
1710812383249,85
1710812383256,90
1710812383264,93
1710812383272,90
1710812383279,103
1710812383287,122
1710812383295,134
1710812383303,147
1710812383310,159
1710812383318,164
1710812383326,164
1710812383333,157
1710812383341,144
1710812383349,130
1710812383356,112
1710812383364,88
1710812383372,61
1710812383379,31
1710812383387,14
1710812383395,9
1710812383401,4
1710812383409,0
1710812383417,-4
1710812383425,-4
1710812383433,2
1710812383441,7
1710812383448,9
1710812383456,19
1710812383464,19
1710812383471,14
1710812383479,19
1710812383487,31
1710812383494,39
1710812383502,36
1710812383510,36
1710812383517,46
1710812383525,56
1710812383533,56
1710812383540,56
1710812383548,58
1710812383556,61
1710812383563,63
1710812383571,61
1710812383579,56
1710812383587,58
1710812383593,61
1710812383601,58
1710812383609,61
1710812383617,58
1710812383625,49
1710812383633,51
1710812383640,63
1710812383648,56
1710812383656,49
1710812383663,61
1710812383671,61
1710812383679,51
1710812383686,53
1710812383694,58
1710812383702,68
1710812383709,93
1710812383717,103
1710812383725,95
1710812383732,76
1710812383740,51
1710812383748,36
1710812383755,39
1710812383763,44
1710812383771,49
1710812383777,53
1710812383785,56
1710812383793,56
1710812383801,61
1710812383809,130
1710812383817,328
1710812383824,596
1710812383832,684
1710812383840,360
1710812383848,-191
1710812383855,-353
1710812383863,-90
1710812383871,7
1710812383878,-56
1710812383886,14
1710812383894,76
1710812383901,39
1710812383909,44
1710812383917,73
1710812383924,68
1710812383932,71
1710812383940,88
1710812383947,83
1710812383955,83
1710812383963,98
1710812383969,110
1710812383977,105
1710812383985,107
1710812383993,127
1710812384001,144
1710812384009,142
1710812384016,134
1710812384024,147
1710812384032,169
1710812384039,181
1710812384047,176
1710812384055,179
1710812384062,186
1710812384070,181
1710812384078,157
1710812384085,137
1710812384093,127
1710812384101,100
1710812384109,71
1710812384116,51
1710812384124,31
1710812384132,19
1710812384139,26
1710812384147,19
1710812384155,0
1710812384161,-2
1710812384169,12
1710812384177,14
1710812384185,9
1710812384193,9
1710812384201,17
1710812384208,26
1710812384216,26
1710812384224,24
1710812384231,26
1710812384239,31
1710812384247,36
1710812384254,36
1710812384262,29
1710812384270,24
1710812384277,24
1710812384285,31
1710812384293,39
1710812384300,31
1710812384308,29
1710812384316,41
1710812384323,36
1710812384331,24
1710812384339,26
1710812384345,29
1710812384353,24
1710812384361,14
1710812384369,17
1710812384377,24
1710812384385,19
1710812384392,17
1710812384400,26
1710812384408,29
1710812384416,41
1710812384423,66
1710812384431,66
1710812384439,46
1710812384446,34
1710812384454,22
1710812384462,17
1710812384469,14
1710812384477,17
1710812384485,26
1710812384492,31
1710812384500,26
1710812384508,26
1710812384515,63
1710812384523,157
1710812384531,372
1710812384537,652
1710812384545,684
1710812384553,257
1710812384561,-277
1710812384569,-323
1710812384577,-56
1710812384584,-24
1710812384592,-68
1710812384600,24
1710812384607,51
1710812384615,0
1710812384623,24
1710812384630,61
1710812384638,51
1710812384646,53
1710812384653,71
1710812384661,71
1710812384669,71
1710812384677,85
1710812384684,98
1710812384692,103
1710812384700,105
1710812384707,110
1710812384715,125
1710812384723,149
1710812384729,159
1710812384737,147
1710812384745,147
1710812384753,164
1710812384761,159
1710812384769,137
1710812384776,142
1710812384784,161
1710812384792,139
1710812384799,105
1710812384807,95
1710812384815,76
1710812384822,46
1710812384830,36
1710812384838,34
1710812384845,19
1710812384853,0
1710812384861,-4
1710812384868,-2
1710812384876,-2
1710812384884,-4
1710812384891,0
1710812384899,12
1710812384907,19
1710812384913,17
1710812384921,14
1710812384929,24
1710812384937,29
1710812384945,34
1710812384953,39
1710812384961,34
1710812384968,44
1710812384976,56
1710812384984,51
1710812384991,49
1710812384999,61
1710812385007,68
1710812385014,58
1710812385022,51
1710812385030,51
1710812385037,49
1710812385045,46
1710812385053,49
1710812385060,46
1710812385068,41
1710812385076,36
1710812385083,49
1710812385091,66
1710812385099,61
1710812385105,56
1710812385113,71
1710812385121,80
1710812385129,80
1710812385137,88
1710812385145,73
1710812385152,46
1710812385160,49
1710812385168,61
1710812385175,58
1710812385183,58
1710812385191,61
1710812385198,61
1710812385206,71
1710812385214,103
1710812385222,206
1710812385229,449
1710812385237,718
1710812385245,721
1710812385252,282
1710812385260,-255
1710812385268,-314
1710812385275,-58
1710812385283,-24
1710812385291,-56
1710812385297,31
1710812385305,46
1710812385313,7
1710812385321,34
1710812385329,61
1710812385337,51
1710812385344,53
1710812385352,68
1710812385360,71
1710812385367,71
1710812385375,80
1710812385383,98
1710812385390,107
1710812385398,112
1710812385406,122
1710812385413,134
1710812385421,147
1710812385429,161
1710812385436,174
1710812385444,181
1710812385452,193
1710812385459,201
1710812385467,198
1710812385475,198
1710812385481,184
1710812385489,159
1710812385497,144
1710812385505,120
1710812385513,83
1710812385521,53
1710812385529,36
1710812385536,24
1710812385544,12
1710812385552,9
1710812385559,12
1710812385567,14
1710812385575,7
1710812385582,12
1710812385590,22
1710812385598,14
1710812385605,4
1710812385613,17
1710812385621,31
1710812385628,34
1710812385636,39
1710812385644,51
1710812385651,61
1710812385659,58
1710812385667,51
1710812385673,58
1710812385681,71
1710812385689,68
1710812385697,66
1710812385705,73
1710812385713,76
1710812385720,73
1710812385728,71
1710812385736,76
1710812385743,76
1710812385751,66
1710812385759,61
1710812385767,63
1710812385774,58
1710812385782,61
1710812385790,68
1710812385797,68
1710812385805,61
1710812385813,68
1710812385820,83
1710812385828,93
1710812385836,95
1710812385843,85
1710812385851,53
1710812385859,34
1710812385865,39
1710812385873,39
1710812385881,39
1710812385889,44
1710812385897,51
1710812385905,51
1710812385912,61
1710812385920,122
1710812385928,279
1710812385935,542
1710812385943,763
1710812385951,635
1710812385958,85
1710812385966,-363
1710812385974,-247
1710812385981,-22
1710812385989,-61
1710812385997,-56
1710812386004,31
1710812386012,22
1710812386020,0
1710812386027,29
1710812386035,41
1710812386043,41
1710812386049,49
1710812386057,41
1710812386065,44
1710812386073,66
1710812386081,76
1710812386089,73
1710812386097,83
1710812386104,100
1710812386112,107
1710812386120,120
1710812386127,139
1710812386135,154
1710812386143,159
1710812386150,169
1710812386158,181
1710812386166,186
1710812386173,181
1710812386181,174
1710812386189,164
1710812386196,147
1710812386204,127
1710812386212,107
1710812386219,78
1710812386227,49
1710812386235,34
1710812386241,24
1710812386249,12
1710812386257,9
1710812386265,14
1710812386273,14
1710812386281,14
1710812386288,22
1710812386296,29
1710812386304,29
1710812386311,31
1710812386319,31
1710812386327,29
1710812386335,31
1710812386342,36
1710812386350,44
1710812386358,49
1710812386365,53
1710812386373,61
1710812386381,66
1710812386388,68
1710812386396,76
1710812386404,78
1710812386411,73
1710812386419,76
1710812386427,80
1710812386433,80
1710812386441,71
1710812386449,66
1710812386457,66
1710812386465,66
1710812386473,68
1710812386480,63
1710812386488,51
1710812386496,49
1710812386503,49
1710812386511,44
1710812386519,46
1710812386526,53
1710812386534,56
1710812386542,66
1710812386549,78
1710812386557,90
1710812386565,98
1710812386573,90
1710812386580,61
1710812386588,41
1710812386596,41
1710812386603,41
1710812386611,41
1710812386619,46
1710812386625,46
1710812386633,39
1710812386641,46
1710812386649,100
1710812386657,242
1710812386665,520
1710812386672,782
1710812386680,689
1710812386688,130
1710812386695,-377
1710812386703,-311
1710812386711,-51
1710812386718,-31
1710812386726,-29
1710812386734,39
1710812386741,36
1710812386749,26
1710812386757,53
1710812386764,66
1710812386772,66
1710812386780,71
1710812386787,78
1710812386795,88
1710812386803,98
1710812386809,103
1710812386817,105
1710812386825,112
1710812386833,115
1710812386841,125
1710812386849,142
1710812386857,154
1710812386864,157
1710812386872,164
1710812386880,184
1710812386887,196
1710812386895,201
1710812386903,208
1710812386910,211
1710812386918,198
1710812386926,184
1710812386933,164
1710812386941,134
1710812386949,105
1710812386956,76
1710812386964,53
1710812386972,41
1710812386979,34
1710812386987,24
1710812386995,12
1710812387001,14
1710812387009,19
1710812387017,22
1710812387025,26
1710812387033,36
1710812387041,39
1710812387048,34
1710812387056,39
1710812387064,51
1710812387071,51
1710812387079,53
1710812387087,63
1710812387095,71
1710812387102,71
1710812387110,73
1710812387118,78
1710812387125,83
1710812387133,83
1710812387141,80
1710812387148,83
1710812387156,85
1710812387164,76
1710812387171,68
1710812387179,71
1710812387187,71
1710812387193,63
1710812387201,63
1710812387209,66
1710812387217,66
1710812387225,61
1710812387233,61
1710812387240,63
1710812387248,68
1710812387256,73
1710812387263,78
1710812387271,76
1710812387279,68
1710812387286,66
1710812387294,76
1710812387302,88
1710812387309,98
1710812387317,107
1710812387325,115
1710812387332,107
1710812387340,78
1710812387348,58
1710812387355,63
1710812387363,71
1710812387371,66
1710812387379,61
1710812387385,63
1710812387393,63
1710812387401,63
1710812387409,100
1710812387417,245
1710812387425,525
1710812387432,792
1710812387440,721
1710812387448,181
1710812387455,-353
1710812387463,-323
1710812387471,-46
1710812387478,-4
1710812387486,-17
1710812387494,34
1710812387501,39
1710812387509,29
1710812387517,51
1710812387524,63
1710812387532,63
1710812387540,76
1710812387547,88
1710812387555,85
1710812387563,85
1710812387569,90
1710812387577,95
1710812387585,98
1710812387593,107
1710812387601,125
1710812387609,132
1710812387616,139
1710812387624,159
1710812387632,176
1710812387640,186
1710812387647,196
1710812387655,208
1710812387663,213
1710812387670,211
1710812387678,206
1710812387686,196
1710812387693,171
1710812387701,142
1710812387709,112
1710812387716,85
1710812387724,61
1710812387732,44
1710812387739,29
1710812387747,19
1710812387755,17
1710812387761,7
1710812387769,-2
1710812387777,7
1710812387785,17
1710812387793,19
1710812387801,22
1710812387808,29
1710812387816,31
1710812387824,34
1710812387831,41
1710812387839,49
1710812387847,53
1710812387854,58
1710812387862,63
1710812387870,68
1710812387877,73
1710812387885,71
1710812387893,68
1710812387900,73
1710812387908,76
1710812387916,71
1710812387924,68
1710812387931,73
1710812387939,68
1710812387947,61
1710812387953,61
1710812387961,66
1710812387969,66
1710812387977,63
1710812387985,63
1710812387993,58
1710812388000,51
1710812388008,56
1710812388016,61
1710812388023,61
1710812388031,61
1710812388039,63
1710812388046,68
1710812388054,68
1710812388062,61
1710812388069,53
1710812388077,51
1710812388085,53
1710812388092,58
1710812388100,71
1710812388108,83
1710812388115,90
1710812388123,88
1710812388131,68
1710812388137,46
1710812388145,49
1710812388153,58
1710812388161,61
1710812388169,66
1710812388177,71
1710812388185,68
1710812388192,71
1710812388200,103
1710812388208,206
1710812388215,449
1710812388223,748
1710812388231,787
1710812388238,343
1710812388246,-264
1710812388254,-370
1710812388261,-68
1710812388269,26
1710812388277,-7
1710812388284,53
1710812388292,76
1710812388300,49
1710812388307,58
1710812388315,80
1710812388323,83
1710812388329,76
1710812388337,73
1710812388345,80
1710812388353,93
1710812388361,93
1710812388369,95
1710812388376,107
1710812388384,117
1710812388392,122
1710812388399,132
1710812388407,149
1710812388415,161
1710812388422,174
1710812388430,188
1710812388438,201
1710812388446,211
1710812388453,218
1710812388461,220
1710812388469,215
1710812388476,203
1710812388484,176
1710812388492,144
1710812388499,110
1710812388507,78
1710812388515,53
1710812388521,34
1710812388529,19
1710812388537,17
1710812388545,14
1710812388553,9
1710812388561,12
1710812388568,19
1710812388576,22
1710812388584,22
1710812388591,26
1710812388599,31
1710812388607,34
1710812388614,36
1710812388622,41
1710812388630,44
1710812388637,46
1710812388645,49
1710812388653,53
1710812388660,53
1710812388668,49
1710812388676,51
1710812388683,58
1710812388691,61
1710812388699,63
1710812388705,66
1710812388713,63
1710812388721,63
1710812388729,66
1710812388737,68
1710812388745,71
1710812388753,68
1710812388760,61
1710812388768,61
1710812388776,63
1710812388783,58
1710812388791,53
1710812388799,53
1710812388806,51
1710812388814,51
1710812388822,53
1710812388829,56
1710812388837,56
1710812388845,51
1710812388852,51
1710812388860,56
1710812388868,56
1710812388875,44
1710812388883,39
1710812388891,44
1710812388897,46
1710812388905,49
1710812388913,63
1710812388921,80
1710812388929,93
1710812388937,95
1710812388944,76
1710812388952,51
1710812388960,51
1710812388967,66
1710812388975,71
1710812388983,71
1710812388991,73
1710812388998,68
1710812389006,58
1710812389014,90
1710812389021,220
1710812389029,478
1710812389037,738
1710812389044,679
1710812389052,149
1710812389060,-397
1710812389067,-353
1710812389075,-46
1710812389083,-4
1710812389089,-22
1710812389097,51
1710812389105,56
1710812389113,36
1710812389121,58
1710812389129,73
1710812389136,73
1710812389144,80
1710812389152,93
1710812389159,100
1710812389167,105
1710812389175,107
1710812389182,112
1710812389190,120
1710812389198,127
1710812389205,130
1710812389213,137
1710812389221,152
1710812389228,166
1710812389236,174
1710812389244,186
1710812389251,206
1710812389259,215
1710812389267,213
1710812389275,215
1710812389281,215
1710812389289,193
1710812389297,166
1710812389305,144
1710812389313,115
1710812389321,83
1710812389328,61
1710812389336,49
1710812389344,36
1710812389351,24
1710812389359,17
1710812389367,17
1710812389374,22
1710812389382,19
1710812389390,19
1710812389397,26
1710812389405,26
1710812389413,19
1710812389420,17
1710812389428,26
1710812389436,34
1710812389443,39
1710812389451,41
1710812389459,46
1710812389465,49
1710812389473,49
1710812389481,51
1710812389489,49
1710812389497,51
1710812389505,51
1710812389512,39
1710812389520,31
1710812389528,36
1710812389535,34
1710812389543,26
1710812389551,31
1710812389559,34
1710812389566,26
1710812389574,29
1710812389582,39
1710812389589,36
1710812389597,36
1710812389605,41
1710812389612,49
1710812389620,51
1710812389628,51
1710812389635,53
1710812389643,56
1710812389651,58
1710812389657,61
1710812389665,66
1710812389673,68
1710812389681,71
1710812389689,71
1710812389697,73
1710812389704,73
1710812389712,66
1710812389720,71
1710812389727,85
1710812389735,95
1710812389743,95
1710812389750,95
1710812389758,90
1710812389766,66
1710812389773,49
1710812389781,58
1710812389789,68
1710812389796,63
1710812389804,53
1710812389812,49
1710812389820,53
1710812389827,73
1710812389835,147
1710812389843,363
1710812389849,655
1710812389857,721
1710812389865,309
1710812389873,-306
1710812389881,-436
1710812389889,-112
1710812389896,17
1710812389904,-24
1710812389912,39
1710812389919,66
1710812389927,29
1710812389935,49
1710812389942,76
1710812389950,71
1710812389958,73
1710812389965,88
1710812389973,95
1710812389981,93
1710812389988,90
1710812389996,95
1710812390004,105
1710812390011,103
1710812390019,98
1710812390027,105
1710812390033,122
1710812390041,134
1710812390049,139
1710812390057,152
1710812390065,169
1710812390073,176
1710812390081,181
1710812390088,186
1710812390096,181
1710812390104,164
1710812390111,144
1710812390119,125
1710812390127,98
1710812390134,63
1710812390142,36
1710812390150,22
1710812390157,12
1710812390165,2
1710812390173,-2
1710812390180,0
1710812390188,-2
1710812390196,-4
1710812390203,0
1710812390211,9
1710812390219,9
1710812390225,9
1710812390233,17
1710812390241,24
1710812390249,19
1710812390257,17
1710812390265,22
1710812390272,26
1710812390280,17
1710812390288,14
1710812390295,24
1710812390303,34
1710812390311,34
1710812390319,31
1710812390326,29
1710812390334,34
1710812390342,36
1710812390349,36
1710812390357,39
1710812390365,39
1710812390372,36
1710812390380,39
1710812390388,46
1710812390395,51
1710812390403,53
1710812390411,51
1710812390417,51
1710812390425,53
1710812390433,46
1710812390441,46
1710812390449,51
1710812390457,53
1710812390464,53
1710812390472,53
1710812390480,56
1710812390487,61
1710812390495,66
1710812390503,68
1710812390510,68
1710812390518,63
1710812390526,66
1710812390533,78
1710812390541,95
1710812390549,100
1710812390556,90
1710812390564,63
1710812390572,49
1710812390579,61
1710812390587,66
1710812390595,66
1710812390603,71
1710812390609,63
1710812390617,53
1710812390625,83
1710812390633,186
1710812390641,404
1710812390649,662
1710812390656,682
1710812390664,242
1710812390672,-328
1710812390679,-365
1710812390687,-41
1710812390695,17
1710812390702,-31
1710812390710,61
1710812390718,93
1710812390725,53
1710812390733,71
1710812390741,95
1710812390748,88
1710812390756,95
1710812390764,105
1710812390771,100
1710812390779,98
1710812390787,100
1710812390793,95
1710812390801,95
1710812390809,110
1710812390817,122
1710812390825,127
1710812390833,137
1710812390840,154
1710812390848,169
1710812390856,176
1710812390864,184
1710812390871,191
1710812390879,188
1710812390887,184
1710812390894,184
1710812390902,179
1710812390910,159
1710812390917,134
1710812390925,107
1710812390933,83
1710812390940,68
1710812390948,46
1710812390956,29
1710812390963,26
1710812390971,14
1710812390979,-4
1710812390985,-2
1710812390993,12
1710812391001,12
1710812391009,9
1710812391017,7
1710812391025,0
1710812391032,0
1710812391040,9
1710812391048,22
1710812391055,26
1710812391063,31
1710812391071,39
1710812391078,41
1710812391086,41
1710812391094,44
1710812391101,49
1710812391109,51
1710812391117,53
1710812391124,46
1710812391132,41
1710812391140,44
1710812391148,39
1710812391155,29
1710812391163,31
1710812391171,41
1710812391177,39
1710812391185,39
1710812391193,44
1710812391201,46
1710812391209,46
1710812391217,46
1710812391224,51
1710812391232,63
1710812391240,61
1710812391247,51
1710812391255,53
1710812391263,58
1710812391270,61
1710812391278,61
1710812391286,68
1710812391293,85
1710812391301,93
1710812391309,90
1710812391316,71
1710812391324,41
1710812391332,34
1710812391339,46
1710812391347,49
1710812391355,53
1710812391361,58
1710812391369,58
1710812391377,58
1710812391385,100
1710812391393,238
1710812391401,495
1710812391409,716
1710812391416,601
1710812391424,68
1710812391432,-355
1710812391439,-208
1710812391447,39
1710812391455,-12
1710812391462,-24
1710812391470,73
1710812391478,68
1710812391485,41
1710812391493,76
1710812391501,78
1710812391508,56
1710812391516,61
1710812391524,76
1710812391531,71
1710812391539,58
1710812391547,61
1710812391553,78
1710812391561,88
1710812391569,93
1710812391577,98
1710812391585,107
1710812391593,120
1710812391600,127
1710812391608,137
1710812391616,149
1710812391623,159
1710812391631,164
1710812391639,164
1710812391646,154
1710812391654,142
1710812391662,127
1710812391670,103
1710812391677,76
1710812391685,56
1710812391693,26
1710812391700,0
1710812391708,-7
1710812391716,-12
1710812391723,-22
1710812391731,-24
1710812391739,-19
1710812391745,-17
1710812391753,-24
1710812391761,-26
1710812391769,-22
1710812391777,-19
1710812391785,-19
1710812391792,-14
1710812391800,-9
1710812391808,-7
1710812391815,2
1710812391823,14
1710812391831,14
1710812391838,12
1710812391846,14
1710812391854,12
1710812391861,12
1710812391869,14
1710812391877,12
1710812391884,7
1710812391892,2
1710812391900,7
1710812391907,9
1710812391915,9
1710812391923,22
1710812391929,26
1710812391937,22
1710812391945,19
1710812391953,29
1710812391961,31
1710812391969,19
1710812391977,19
1710812391984,34
1710812391992,41
1710812392000,44
1710812392007,51
1710812392015,61
1710812392023,73
1710812392030,66
1710812392038,41
1710812392046,19
1710812392053,0
1710812392061,-4
1710812392069,9
1710812392076,24
1710812392084,26
1710812392092,26
1710812392099,26
1710812392107,34
1710812392115,73
1710812392121,203
1710812392129,466
1710812392137,711
1710812392145,630
1710812392153,115
1710812392161,-343
1710812392168,-240
1710812392176,7
1710812392184,-34
1710812392191,-51
1710812392199,53
1710812392207,51
1710812392214,12
1710812392222,41
1710812392230,53
1710812392238,26
1710812392245,29
1710812392253,51
1710812392261,46
1710812392268,46
1710812392276,68
1710812392284,80
1710812392291,76
1710812392299,78
1710812392307,95
1710812392313,120
1710812392321,132
1710812392329,132
1710812392337,139
1710812392345,154
1710812392353,159
1710812392360,164
1710812392368,169
1710812392376,164
1710812392383,157
1710812392391,142
1710812392399,120
1710812392406,90
1710812392414,56
1710812392422,36
1710812392429,22
1710812392437,7
1710812392445,2
1710812392452,0
1710812392460,-7
1710812392468,-7
1710812392475,-4
1710812392483,-7
1710812392491,-7
1710812392499,-2
1710812392505,12
1710812392513,14
1710812392521,9
1710812392529,14
1710812392537,14
1710812392545,14
1710812392552,26
1710812392560,31
1710812392568,22
1710812392575,22
1710812392583,29
1710812392591,14
1710812392598,2
1710812392606,17
1710812392614,26
1710812392621,19
1710812392629,17
1710812392637,24
1710812392644,26
1710812392652,26
1710812392660,26
1710812392667,22
1710812392675,29
1710812392683,39
1710812392689,39
1710812392697,44
1710812392705,46
1710812392713,36
1710812392721,39
1710812392729,63
1710812392736,83
1710812392744,78
1710812392752,73
1710812392759,58
1710812392767,22
1710812392775,0
1710812392783,7
1710812392790,24
1710812392798,29
1710812392806,34
1710812392813,36
1710812392821,39
1710812392829,61
1710812392836,142
1710812392844,341
1710812392852,637
1710812392859,755
1710812392867,414
1710812392875,-161
1710812392881,-341
1710812392889,-83
1710812392897,0
1710812392905,-73
1710812392913,17
1710812392921,73
1710812392928,22
1710812392936,39
1710812392944,68
1710812392951,46
1710812392959,41
1710812392967,58
1710812392974,66
1710812392982,71
1710812392990,80
1710812392997,83
1710812393005,90
1710812393013,103
1710812393020,115
1710812393028,120
1710812393036,117
1710812393044,122
1710812393051,139
1710812393059,144
1710812393067,152
1710812393073,169
1710812393081,171
1710812393089,169
1710812393097,166
1710812393105,152
1710812393113,137
1710812393120,125
1710812393128,90
1710812393136,49
1710812393143,29
1710812393151,24
1710812393159,9
1710812393166,-2
1710812393174,0
1710812393182,2
1710812393189,0
1710812393197,-4
1710812393205,-12
1710812393212,0
1710812393220,17
1710812393228,14
1710812393235,9
1710812393243,14
1710812393251,19
1710812393257,26
1710812393265,31
1710812393273,34
1710812393281,39
1710812393289,44
1710812393297,41
1710812393305,44
1710812393312,41
1710812393320,34
1710812393328,39
1710812393335,46
1710812393343,24
1710812393351,2
1710812393358,17
1710812393366,24
1710812393374,12
1710812393381,14
1710812393389,26
1710812393397,26
1710812393404,24
1710812393412,26
1710812393420,34
1710812393427,41
1710812393435,46
1710812393443,53
1710812393449,71
1710812393457,83
1710812393465,76
1710812393473,56
1710812393481,39
1710812393489,26
1710812393496,22
1710812393504,29
1710812393512,41
1710812393519,44
1710812393527,41
1710812393535,46
1710812393542,68
1710812393550,149
1710812393558,363
1710812393565,655
1710812393573,755
1710812393581,407
1710812393589,-179
1710812393596,-368
1710812393604,-103
1710812393612,4
1710812393619,-51
1710812393627,14
1710812393635,66
1710812393641,31
1710812393649,39
1710812393657,68
1710812393665,66
1710812393673,61
1710812393681,76
1710812393688,83
1710812393696,85
1710812393704,83
1710812393711,85
1710812393719,98
1710812393727,105
1710812393734,112
1710812393742,125
1710812393750,144
1710812393757,157
1710812393765,161
1710812393773,176
1710812393780,196
1710812393788,203
1710812393796,198
1710812393803,198
1710812393811,198
1710812393819,184
1710812393825,159
1710812393833,130
1710812393841,105
1710812393849,76
1710812393857,39
1710812393865,14
1710812393873,2
1710812393880,-17
1710812393888,-26
1710812393896,-17
1710812393903,-7
1710812393911,-7
1710812393919,-4
1710812393926,2
1710812393934,7
1710812393942,12
1710812393949,19
1710812393957,26
1710812393965,31
1710812393972,31
1710812393980,36
1710812393988,46
1710812393995,51
1710812394003,49
1710812394011,53
1710812394017,58
1710812394025,58
1710812394033,51
1710812394041,49
1710812394049,49
1710812394057,44
1710812394064,31
1710812394072,34
1710812394080,49
1710812394087,49
1710812394095,41
1710812394103,44
1710812394111,51
1710812394118,53
1710812394126,53
1710812394134,61
1710812394141,63
1710812394149,58
1710812394157,58
1710812394164,66
1710812394172,71
1710812394180,78
1710812394187,85
1710812394195,88
1710812394203,80
1710812394209,56
1710812394217,34
1710812394225,36
1710812394233,49
1710812394241,49
1710812394249,44
1710812394256,44
1710812394264,44
1710812394272,53
1710812394279,98
1710812394287,220
1710812394295,476
1710812394302,755
1710812394310,733
1710812394318,242
1710812394325,-314
1710812394333,-338
1710812394341,-61
1710812394348,-7
1710812394356,-22
1710812394364,46
1710812394371,56
1710812394379,36
1710812394387,58
1710812394395,63
1710812394401,56
1710812394409,71
1710812394417,83
1710812394425,80
1710812394433,88
1710812394441,103
1710812394448,112
1710812394456,115
1710812394464,117
1710812394471,130
1710812394479,137
1710812394487,142
1710812394494,154
1710812394502,176
1710812394510,186
1710812394517,193
1710812394525,208
1710812394533,213
1710812394540,211
1710812394548,201
1710812394556,181
1710812394563,149
1710812394571,120
1710812394579,93
1710812394585,68
1710812394593,49
1710812394601,31
1710812394609,17
1710812394617,14
1710812394625,19
1710812394632,24
1710812394640,26
1710812394648,29
1710812394655,34
1710812394663,41
1710812394671,46
1710812394679,53
1710812394686,63
1710812394694,63
1710812394702,63
1710812394709,68
1710812394717,73
1710812394725,76
1710812394732,80
1710812394740,85
1710812394748,88
1710812394755,83
1710812394763,83
1710812394771,85
1710812394777,83
1710812394785,73
1710812394793,73
1710812394801,78
1710812394809,80
1710812394817,78
1710812394824,78
1710812394832,80
1710812394840,80
1710812394847,80
1710812394855,88
1710812394863,90
1710812394870,90
1710812394878,88
1710812394886,90
1710812394893,100
1710812394901,103
1710812394909,93
1710812394916,93
1710812394924,98
1710812394932,95
1710812394940,93
1710812394947,105
1710812394955,107
1710812394963,98
1710812394969,78
1710812394977,61
1710812394985,66
1710812394993,76
1710812395001,78
1710812395009,83
1710812395016,85
1710812395024,76
1710812395032,76
1710812395039,127
1710812395047,269
1710812395055,542
1710812395062,799
1710812395070,726
1710812395078,184
1710812395085,-353
1710812395093,-316
1710812395101,-29
1710812395108,12
1710812395116,-2
1710812395124,58
1710812395131,66
1710812395139,53
1710812395147,76
1710812395153,88
1710812395161,88
1710812395169,100
1710812395177,110
1710812395185,115
1710812395193,122
1710812395201,125
1710812395208,125
1710812395216,134
1710812395224,149
1710812395231,157
1710812395239,166
1710812395247,179
1710812395254,188
1710812395262,201
1710812395270,215
1710812395277,225
1710812395285,233
1710812395293,233
1710812395300,225
1710812395308,218
1710812395316,208
1710812395323,186
